T_ms,i,ii,iii,avr,avl,avf,v1,v2,v3,v4,v5,v6
0.0,,,,,,,,,,,,
0.002,,,,,,,,,,,,
0.004,,,,,,,,,,,,
0.006,,,,,,,,,,,,
0.008,,,,,,,,,,,,
0.01,,,,,,,,,,,,
0.012,,,,,,,,,,,,
0.014,,,,,,,,,,,,
0.016,,,,,,,,,,,,
0.018,,,,,,,,,,,,
0.02,,,,,,,,,,,,
0.022,,,,,,,,,,,,
0.024,,,,,,,,,,,,
0.026,,,,,,,,,,,,
0.028,,,,,,,,,,,,
0.03,,,,,,,,,,,,
0.032,,,,,,,,,,,,
0.034,,,,,,,,,,,,
0.036,,,,,,,,,,,,
0.038,,,,,,,,,,,,
0.04,,,,,,,,,,,,
0.042,,,,,,,,,,,,
0.044,,,,,,,,,,,,
0.046,,,,,,,,,,,,
0.048,,,,,,,,,,,,
0.05,,,,,,,,,,,,
0.052,,,,,,,,,,,,
0.054,,,,,,,,,,,,
0.056,,,,,,,,,,,,
0.058,,,,,,,,,,,,
0.06,,,,,,,,,,,,
0.062,,,,,,,,,,,,
0.064,,,,,,,,,,,,
0.066,,,,,,,,,,,,
0.068,,,,,,,,,,,,
0.07,,,,,,,,,,,,
0.072,,,,,,,,,,,,
0.074,,,,,,,,,,,,
0.076,,,,,,,,,,,,
0.078,,,,,,,,,,,,
0.08,,,,,,,,,,,,
0.082,,,,,,,,,,,,
0.084,,,,,,,,,,,,
0.086,,,,,,,,,,,,
0.088,,,,,,,,,,,,
0.09,,,,,,,,,,,,
0.092,,,,,,,,,,,,
0.094,,,,,,,,,,,,
0.096,,,,,,,,,,,,
0.098,,,,,,,,,,,,
0.1,,,,,,,,,,,,
0.102,,,,,,,,,,,,
0.104,,,,,,,,,,,,
0.106,,,,,,,,,,,,
0.108,,,,,,,,,,,,
0.11,,,,,,,,,,,,
0.112,,,,,,,,,,,,
0.114,,,,,,,,,,,,
0.116,,,,,,,,,,,,
0.118,0.2949852507374631,,,,,,,,,,,
0.12,0.30247699961313407,,,,,,,,,,,
0.122,0.30996874848880507,,,,,,,,,,,
0.124,0.31746049736447607,,,,,,,,,,,
0.126,0.3241815368247981,,,,,,,,,,,
0.128,0.3291760360752454,,,,,,,,,,,
0.13,0.33417053532569274,,,,,,,,,,,
0.132,0.33916503457614,,,,,,,,,,,
0.134,0.34261811499588957,,,,,,,,,,,
0.136,0.3451153646211132,,,,,,,,,,,
0.138,0.3476126142463369,,,,,,,,,,,
0.14,0.3501098638715605,,,,,,,,,,,
0.142,0.345670728758644,,,,,,,,,,,
0.144,0.3406762295081967,,,,,,,,,,,
0.146,0.3356817302577494,,,,,,,,,,,
0.148,0.3306872310073021,,,,,,,,,,,
0.15,0.3256927317568548,,,,,,,,,,,
0.152,0.32069823250640744,,,,,,,,,,,
0.154,0.31570373325596013,,,,,,,,,,,
0.156,0.3066403416509502,,,,,,,,,,,
0.158,0.29415409352483196,,,,,,,,,,,
0.16,0.28166784539871365,,,,,,,,,,,
0.162,0.2691815972725954,,,,,,,,,,,
0.164,0.25456834227960734,,,,,,,,,,,
0.166,0.23958484452826534,,,,,,,,,,,
0.168,0.2246013467769234,,,,,,,,,,,
0.17,0.20961784902558145,,,,,,,,,,,
0.172,0.19463435127423953,,,,,,,,,,,
0.174,0.17965085352289759,,,,,,,,,,,
0.176,0.16466735577155564,,,,,,,,,,,
0.178,0.1496838580202137,,,,,,,,,,,
0.18,0.1347003602688718,,,,,,,,,,,
0.182,0.11971686251752983,,,,,,,,,,,
0.184,0.10473336476618784,,,,,,,,,,,
0.186,0.09557552347792445,,,,,,,,,,,
0.188,0.08808377460225346,,,,,,,,,,,
0.19,0.08059202572658251,,,,,,,,,,,
0.192,0.07310027685091151,,,,,,,,,,,
0.194,0.06560852797524057,,,,,,,,,,,
0.196,0.058116779099569575,,,,,,,,,,,
0.198,0.05062503022389863,,,,,,,,,,,
0.2,0.04510539073456162,,,,,,,,,,,
0.202,0.04260814110933797,,,,,,,,,,,
0.204,0.04011089148411431,,,,,,,,,,,
0.206,0.03761364185889066,,-0.018436578171091445,,,,,,,,,
0.208,0.035116392233667,,-0.018436578171091445,,,,,,,,,
0.21,0.03261914260844335,,-0.018436578171091445,,,,,,,,,
0.212,0.030121892983219684,,-0.018436578171091445,,,,,,,,,
0.214,0.02762464335799602,,-0.018436578171091445,,,,,,,,,
0.216,0.02512739373277237,,-0.018436578171091445,,,,,,,,,
0.218,0.022630144107548704,,-0.018436578171091445,,,,,,,,,
0.22,0.020132894482325057,,-0.018436578171091445,,,,,,,,,
0.222,0.018436578171091445,,-0.018436578171091445,,,,,,,,,
0.224,0.018436578171091445,,-0.018436578171091445,,,,,,,,,
0.226,0.018436578171091445,,-0.018436578171091445,,,,,,,,,
0.228,0.018436578171091445,,-0.018436578171091445,,,,,,,,,
0.23,0.01686493544175249,,-0.018436578171091445,,,,,,,,,
0.232,0.014367685816528841,,-0.018436578171091445,,,,,,,,,
0.234,0.011870436191305176,,-0.018436578171091445,,,,,,,,,
0.236,0.009373186566081528,-0.018436578171091445,-0.018436578171091445,,,,-0.009218289085545723,-0.009218289085545723,0.009218289085545723,,-0.03687315634218289,0.018436578171091445
0.238,0.009218289085545723,-0.018436578171091445,-0.018436578171091445,,,,-0.009218289085545723,-0.009218289085545723,0.009218289085545723,,-0.044364710050931726,0.015939393601508502
0.24,0.009218289085545723,-0.018436578171091445,-0.018436578171091445,,,,-0.009218289085545723,-0.009218289085545723,0.009218289085545723,,-0.05185626375968056,0.013442209031925556
0.242,0.009218289085545723,-0.018436578171091445,-0.018436578171091445,,,,-0.009218289085545723,-0.009218289085545723,0.009218289085545723,,-0.05934781746842938,0.010945024462342611
0.244,0.008602477150732625,-0.018436578171091445,-0.017086152683183867,,,,-0.008447839892759667,-0.009988738278331778,0.008447839892759667,,-0.06529847279160611,0.008447839892759667
0.246,0.00610522752550896,-0.018436578171091445,-0.014589212108676693,,,,-0.005950655323176724,-0.012485922847914721,0.005950655323176724,,-0.06779565736118906,0.005950655323176724
0.248,0.003607977900285295,-0.018436578171091445,-0.012092271534169528,,,,-0.0034534707535937787,-0.014983107417497667,0.0034534707535937787,,-0.07029284193077201,0.0034534707535937787
0.25,0.0011107282750616307,-0.018436578171091445,-0.009595330959662364,,,,-0.000956286184010833,-0.017480291987080614,0.000956286184010833,,-0.07279002650035495,0.000956286184010833
0.252,0.0027730427003240027,-0.016895679785519334,-0.009218289085545723,,,,0.0,-0.018436578171091445,0.0,0.018436578171091445,-0.07836900784108213,-0.0015408983855721104
0.254,0.007767541950771332,-0.014398495215936391,-0.009218289085545723,,,,0.0,-0.018436578171091445,0.0,0.01593874425537046,-0.08586056154983095,-0.004038082955155054
0.256,0.012762041201218662,-0.011901310646353448,-0.009218289085545723,,,,0.0,-0.018436578171091445,0.0,0.013440910339649474,-0.09335211525857977,-0.006535267524737997
0.258,0.01775654045166599,-0.0094041260767705,-0.009218289085545723,,,,0.0,-0.018436578171091445,0.0,0.010943076423928487,-0.10084366896732862,-0.009032452094320945
0.26,0.018436578171091445,-0.009218289085545723,-0.009218289085545723,,,,0.0023113475783581657,-0.02074792574944961,0.0,0.0084452425082075,-0.10140117994100295,-0.009218289085545723
0.262,0.018436578171091445,-0.009218289085545723,-0.009218289085545723,,,,0.004808532147941109,-0.023245110319032553,0.0,0.005947408592486516,-0.10140117994100295,-0.009218289085545723
0.264,0.018436578171091445,-0.009218289085545723,-0.009218289085545723,,,,0.007305716717524057,-0.025742294888615503,0.0,0.00344957467676553,-0.10140117994100295,-0.009218289085545723
0.266,0.017575197059819095,-0.009218289085545723,-0.009218289085545723,,,,0.009218289085545723,-0.028239479458198442,-0.0005846122015612733,0.0009517407610445438,-0.10081656773944167,-0.009218289085545723
0.268,0.01258069780937183,-0.009218289085545723,-0.009218289085545723,,,,0.009218289085545723,-0.03073666402778139,-0.003081796771144221,0.0,-0.09831938316985873,-0.009218289085545723
0.27,0.0075861985589245,-0.009218289085545723,-0.009218289085545723,,,,0.009218289085545723,-0.033233848597364335,-0.005578981340727168,0.0,-0.09582219860027578,-0.009218289085545723
0.272,0.0025916993084771707,-0.009218289085545723,-0.009218289085545723,,,,0.009218289085545723,-0.03573103316694728,-0.008076165910310108,0.0,-0.09332501403069285,-0.009218289085545723
0.274,0.0,-0.010573350479893055,-0.00728691132221352,,,,0.00786322769119839,-0.03687315634218289,-0.010573350479893055,0.0,-0.08811770667241522,-0.009218289085545723
0.276,0.0,-0.013070535049475994,-0.004789970747706338,,,,0.00536604312161545,-0.03687315634218289,-0.013070535049475994,-0.0023191397320146633,-0.0806261529636664,-0.009218289085545723
0.278,0.0,-0.015567719619058942,-0.002293030173199173,,,,0.002868858552032503,-0.03687315634218289,-0.015567719619058942,-0.004816973647735647,-0.07313459925491757,-0.009218289085545723
0.28,0.0,-0.01806490418864189,0.0,,,,0.00037167398244955556,-0.03687315634218289,-0.01806490418864189,-0.007314807563456635,-0.06564304554616872,-0.009218289085545723
0.282,0.0039442187726679645,-0.01631106758395806,0.0,,,,0.0,-0.03687315634218289,-0.018436578171091445,-0.009812641479177623,-0.058151491837419904,-0.009218289085545723
0.284,0.008938718023115294,-0.013813883014375115,0.0,,,,0.0,-0.03687315634218289,-0.018436578171091445,-0.012310475394898606,-0.05065993812867106,-0.009218289085545723
0.286,0.013933217273562558,-0.011316698444792167,0.0,,,,0.0,-0.03687315634218289,-0.018436578171091445,-0.014808309310619591,-0.04316838441992222,-0.009218289085545723
0.288,0.018436578171091445,-0.008819513875209227,0.0,,,,0.0,-0.03687315634218289,-0.018436578171091445,-0.017306143226340574,-0.0360756059215099,-0.009218289085545723
0.29,0.018436578171091445,-0.006322329305626279,0.0,,,,0.0,-0.03687315634218289,-0.018436578171091445,-0.018436578171091445,-0.031081236782344004,-0.009218289085545723
0.292,0.018436578171091445,-0.003825144736043332,0.0,,,,0.0,-0.03687315634218289,-0.018436578171091445,-0.018436578171091445,-0.026086867643178108,-0.009218289085545723
0.294,0.018436578171091445,-0.0013279601664603928,0.0,,,,0.0,-0.03687315634218289,-0.018436578171091445,-0.018436578171091445,-0.02109249850401223,-0.009218289085545723
0.296,0.018436578171091445,0.0,0.0,,,,0.0,-0.03687315634218289,-0.018436578171091445,-0.018436578171091445,-0.0172673537679689,-0.009218289085545723
0.298,0.018436578171091445,0.0,0.0,,,,0.0,-0.03687315634218289,-0.018436578171091445,-0.020577023719399786,-0.014770169198385951,-0.009218289085545723
0.3,0.018436578171091445,0.0,0.0,,,,0.0,-0.03687315634218289,-0.018436578171091445,-0.023074857635120773,-0.012272984628803003,-0.009218289085545723
0.302,0.018436578171091445,0.0,-1.5389464249671188e-05,,,,0.0,-0.03687315634218289,-0.018436578171091445,-0.025572691550841756,-0.009775800059220055,-0.009218289085545723
0.304,0.018436578171091445,0.0,-0.002512330038756836,,,,0.0,-0.03687315634218289,-0.018436578171091445,-0.027239209046711597,-0.005338941893728495,-0.007278615489637108
0.306,0.018436578171091445,0.0,-0.005009270613264001,,,,0.0,-0.03687315634218289,-0.018436578171091445,-0.024741375130990603,-0.000344572754562632,-0.0047814309200541775
0.308,0.018436578171091445,0.0,-0.007506211187771183,,,,0.0,-0.03687315634218289,-0.018436578171091445,-0.02224354121526962,0.004649796384603263,-0.00228424635047123
0.31,0.018497025968373743,0.0,-0.008433426408813097,,,,0.0,-0.03687315634218289,-0.018436578171091445,-0.019745707299548637,0.00943122730465744,0.0
0.312,0.020994275593597376,0.0,-0.0059364858343059325,,,,0.0,-0.03687315634218289,-0.018436578171091445,-0.019625282958355247,0.011928411874240388,0.0
0.314,0.02349152521882104,0.0,-0.003439545259798768,,,,0.0,-0.03687315634218289,-0.018436578171091445,-0.02212311687407623,0.014425596443823335,0.0
0.316,0.025988774844044705,0.0,-0.000942604685291603,,,,0.0,-0.03687315634218289,-0.018436578171091445,-0.024620950789797213,0.016922781013406267,0.0
0.318,0.02848602446926837,0.0009833874118977688,-0.0015543358892155619,,,,0.0009833874118977688,-0.03687315634218289,-0.018436578171091445,-0.0271187847055182,0.018436578171091445,-0.0009833874118977688
0.32,0.030983274094492003,0.003480571981480716,-0.004051276463722743,,,,0.003480571981480716,-0.03687315634218289,-0.018436578171091445,-0.02765486725663717,0.018436578171091445,-0.003480571981480716
0.322,0.03348052371971567,0.005977756551063664,-0.006548217038229908,,,,0.005977756551063664,-0.03687315634218289,-0.018436578171091445,-0.02765486725663717,0.018436578171091445,-0.005977756551063664
0.324,0.03597777334493933,0.008474941120646612,-0.009045157612737073,,,0.0,0.008474941120646612,-0.03687315634218289,-0.018436578171091445,-0.02765486725663717,0.018436578171091445,-0.008474941120646612
0.326,0.035271289714202785,0.010972125690229559,-0.006894479983847191,,,0.0,0.009218289085545723,-0.03687315634218289,-0.01668274156640761,-0.027417903230417907,0.018436578171091445,-0.009218289085545723
0.328,0.032774040088979155,0.013469310259812491,-0.004397539409340042,,,0.0,0.009218289085545723,-0.03687315634218289,-0.014185556996824677,-0.024920069314696924,0.018436578171091445,-0.009218289085545723
0.33,0.030276790463755487,0.01596649482939544,-0.0019005988348328607,,,0.0,0.009218289085545723,-0.03687315634218289,-0.01168837242724173,-0.02242223539897594,0.018436578171091445,-0.009218289085545723
0.332,0.027779540838531822,0.018463679398978385,0.0,,,0.0007691768813356509,0.009218289085545723,-0.03687315634218289,-0.009218289085545723,-0.019924401483254958,0.018463679398978385,-0.009218289085545723
0.334,0.02765486725663717,0.02096086396856133,0.0,,,0.003266043373055994,0.009218289085545723,-0.03687315634218289,-0.009218289085545723,-0.018436578171091445,0.02096086396856133,-0.009218289085545723
0.336,0.02765486725663717,0.02345804853814428,0.0,,,0.005762909864776338,0.009218289085545723,-0.03687315634218289,-0.009218289085545723,-0.018436578171091445,0.02345804853814428,-0.009218289085545723
0.338,0.02765486725663717,0.02595523310772721,0.0,,,0.008259776356496681,0.009218289085545723,-0.03687315634218289,-0.009218289085545723,-0.018436578171091445,0.02595523310772721,-0.009218289085545723
0.34,0.028300903090091416,0.02765486725663717,0.0,,,0.009218289085545723,0.010813389926891705,-0.03527805550083691,-0.008420738664872732,-0.018436578171091445,0.02845241767731016,-0.010015839506218713
0.342,0.03079815271531508,0.02765486725663717,0.0,,,0.009218289085545723,0.0158077590660576,-0.030283686361671013,-0.005923554095289784,-0.020219635351987147,0.030949602246893106,-0.012513024075801661
0.344,0.033295402340538745,0.02765486725663717,0.0,,,0.009218289085545723,0.020802128205223494,-0.025289317222505117,-0.0034263695257068364,-0.02271746926770813,0.03344678681647605,-0.01501020864538461
0.346,0.035792651965762375,0.02765486725663717,0.0,,,0.009218289085545723,0.02579649734438939,-0.020294948083339225,-0.0009291849561238889,-0.025215303183429114,0.035943971386059,-0.017507393214967557
0.348,0.03687315634218289,0.026086867643178108,-0.002135288164640195,,,0.006910758441538768,0.02765486725663717,-0.0043245816499599184,0.007839998067295293,-0.02759659741412424,0.04000915556910101,-0.021572577398009562
0.35,0.03687315634218289,0.02358968307359518,-0.0046322287391473765,,,0.004413891949818427,0.02765486725663717,0.01815007947628646,0.020325920915209947,-0.025098763498403252,0.04500352470826687,-0.026566946537175423
0.352,0.03687315634218289,0.02109249850401223,-0.0071291693136545245,,,0.001917025458098082,0.02765486725663717,0.04062474060253299,0.03281184376312469,-0.02260092958268227,0.049997893847432764,-0.03156131567634132
0.354,0.03687315634218289,0.018595313934429283,-0.009626109888161706,-0.018436578171091445,0.03687315634218289,-0.000579841033622263,0.02765486725663717,0.06309940172877952,0.045297766611039424,-0.020103095666961286,0.05499226298659866,-0.036555684815507215
0.356,0.03687315634218289,0.01609812936484635,-0.012123050462668887,-0.015939461963163683,0.03687315634218289,-0.0030767075253426038,0.025316418450392075,0.09726630688625136,0.07415283110266974,-0.013448679651984584,0.08570956899446054,-0.0321962587296927
0.358,0.03687315634218289,0.013600944795263404,-0.014619991037176035,-0.013442345755235924,0.03687315634218289,-0.005573574017062944,0.02281923388080913,0.13222689086041262,0.1041190459376651,0.0015383238423414165,0.11817296839903886,-0.027201889590526808
0.36,0.03687315634218289,0.011103760225680458,-0.017116931611683216,-0.010945229547308165,0.03687315634218289,-0.008070440508783293,0.02032204931122618,0.16718747483457388,0.13408526077266048,0.01652532733666732,0.1506363678036172,-0.022207520451360915
0.362,0.03595132743362824,0.007994862226649297,-0.018436578171091445,-0.007677937593215085,0.03610298059601757,-0.010567307000503635,0.015378011023850379,0.20520662595597622,0.16588661589600048,0.031512330830993224,0.18799347464378122,-0.008649163299920033
0.364,0.030956828183180976,0.003000493087483401,-0.018436578171091445,-0.0026837051773595626,0.03360586438808981,-0.013064173492223975,0.002892088175935641,0.25265313277805224,0.2033443844397447,0.05933423830283411,0.2404343506050231,0.03130578981340713
0.366,0.025962328932733713,-0.001993876051682494,-0.018436578171091445,0.002310527238495955,0.03110874818016205,-0.015561039983944324,-0.009593834671979096,0.3000996396001282,0.24080215298348892,0.09430391312292788,0.292875226566265,0.07126074292673429
0.368,0.020967829682286318,-0.006988245190848389,-0.018436578171091445,0.007304759654351477,0.028611631972234288,-0.018057906475664666,-0.022079757519893835,0.3475461464222042,0.2782599215272331,0.12927358794302166,0.3453161025275069,0.11121569604006144
0.37,0.01720495430146525,-0.010600451707780003,-0.018436578171091445,0.009218289085545723,0.02611451576430653,-0.018436578171091445,-0.042858656101214254,0.36734940079959466,0.3018960638486345,0.16424326276311543,0.3908461653775774,0.15531713702009145
0.372,0.014707704676241553,-0.013097636277362951,-0.018436578171091445,0.009218289085545723,0.02361739955637877,-0.018436578171091445,-0.07032768636662667,0.3648522162300117,0.31438198669654926,0.21347739503037505,0.4308011184909046,0.20276364384216744
0.374,0.01221045505101792,-0.015594820846945898,-0.018436578171091445,0.009218289085545723,0.021120283348451008,-0.018436578171091445,-0.09779671663203911,0.3623550316604287,0.32686790954446404,0.2634340733447944,0.4707560716042317,0.25021015066424346
0.376,0.009713205425794288,-0.018092005416528813,-0.018436578171091445,0.009218289085545723,0.01862316714052325,-0.018827083357000313,-0.12526574689745115,0.3598578470908458,0.3393538323923786,0.3133907516592144,0.5107110247175584,0.2976566574863188
0.378,0.00721595580057059,-0.02058918998611176,-0.018436578171091445,0.013839343562537633,0.018436578171091445,-0.021323949848720655,-0.14412432990278232,0.303545367145755,0.3066349071248667,0.35812645208447524,0.5054611297154589,0.33218749341827297
0.38,0.004718706175346959,-0.02308637455569471,-0.018436578171091445,0.01883357597839316,0.018436578171091445,-0.023820816340441003,-0.16160462188986296,0.23861856833659834,0.26667995401153954,0.38810045907312724,0.4929752068675442,0.36465089282285124
0.382,0.0022214565501232613,-0.025583559125277655,-0.018436578171091445,0.023827808394248678,0.018436578171091445,-0.026317682832161345,-0.17908491387694359,0.1736917695274417,0.22672500089821238,0.4180744660617792,0.4804892840196294,0.39711429222742956
0.384,-0.0002757930751003706,-0.02850662013308404,-0.019425351249132063,0.02823845403337068,0.018436578171091445,-0.028814549323881694,-0.19443582367290704,0.11174610578584912,0.1854924184702149,0.44804847305043083,0.4603375852836929,0.4206342864293158
0.386,-0.0027730427003240027,-0.03350098927224993,-0.02192229182363921,0.030735570241298443,0.018436578171091445,-0.03131141581560203,-0.19943019281207294,0.06429959896377312,0.1380459116481389,0.43097540919414185,0.402902340183285,0.4006568098726522
0.388,-0.0052702923255477,-0.038495358411415825,-0.02441923239814639,0.03323268644922621,0.018436578171091445,-0.03380828230732238,-0.20442456195123884,0.016853092141697112,0.0905994048260629,0.37852089696400154,0.3454670950828772,0.3806793333159886
0.39,-0.007767541950771332,-0.043489727550581725,-0.026916172972653574,0.03572980265715396,0.018436578171091445,-0.036305148799042716,-0.20941893109040474,-0.030593414680378888,0.04315289800398689,0.3260663847338605,0.28803184998246945,0.36070185675932503
0.392,-0.009218289085545723,-0.04728777105873812,-0.02941311354716072,0.03687315634218289,0.018436578171091445,-0.038802015290763055,-0.2060390208125041,-0.09359215470557843,-0.010275236973136625,0.2736118725037202,0.23538190740609968,0.34192070583367096
0.394,-0.009218289085545723,-0.04978495562832106,-0.031910054121667905,0.03687315634218289,0.018436578171091445,-0.0412988817824834,-0.19355309796458936,-0.17350206093223275,-0.07020766664312737,0.2233560756644005,0.18793540058402367,0.3244404138465903
0.396,-0.009218289085545723,-0.052282140197903976,-0.03440699469617505,0.03687315634218289,0.018436578171091445,-0.04379574827420375,-0.1810671751166748,-0.25341196715888603,-0.13014009631311732,0.17339939734998114,0.14048889376194829,0.3069601218595099
0.398,-0.009218289085545723,-0.054779324767486925,-0.03687315634218289,0.03687315634218289,0.018436578171091445,-0.04609144542772861,-0.16858125226876006,-0.33332187338554037,-0.19007252598310806,0.12344271903556114,0.0930423869398723,0.28947982987242926
0.4,-0.009218289085545723,-0.05530973451327434,-0.03687315634218289,0.03899709461124704,0.018436578171091445,-0.04609144542772861,-0.14822823012566316,-0.3876637069028527,-0.2342707570627345,0.07206425656382558,0.00822715846568107,0.24839823999980218
0.402,-0.009218289085545723,-0.05530973451327434,-0.03687315634218289,0.0414942108191748,0.018436578171091445,-0.04609144542772861,-0.12575356899941664,-0.43511021372492864,-0.2742257101760617,0.014614076502243325,-0.08666585517847093,0.2009517331777262
0.404,-0.009218289085545723,-0.05530973451327434,-0.03687315634218289,0.04399132702710256,0.018436578171091445,-0.04609144542772861,-0.10327890787317011,-0.48255672054700466,-0.3141806632893888,-0.04283610355933968,-0.18155886882262295,0.15350522635565017
0.406,-0.009218289085545723,-0.05530973451327434,-0.03687315634218289,0.04609144542772861,0.018436578171091445,-0.04706179164725974,-0.08224448342891554,-0.5218418861711263,-0.3486147091217468,-0.10028628362092193,-0.2663702256928313,0.1082190745565621
0.408,-0.009218289085545723,-0.05530973451327434,-0.03687315634218289,0.04609144542772861,0.018436578171091445,-0.0495586581389801,-0.07475292972016669,-0.4843841176273821,-0.33113441713466624,-0.1602304129420584,-0.2563814874144995,0.08324722886073262
0.41,-0.009218289085545723,-0.05530973451327434,-0.03687315634218289,0.04609144542772861,0.018436578171091445,-0.052055524630700435,-0.06726137601141785,-0.44692634908363793,-0.3136541251475856,-0.2226762608350826,-0.24639274913616774,0.05827538316490315
0.412,-0.009218289085545723,-0.05530973451327434,-0.03687315634218289,0.04609144542772861,0.018436578171091445,-0.054552391122420774,-0.059769822302669,-0.40946858053989366,-0.29617383316050494,-0.2851221087281076,-0.23640401085783597,0.03330353746907367
0.414,-0.009218289085545723,-0.05530973451327434,-0.03687315634218289,0.04725861898119564,0.018436578171091445,-0.05530973451327434,-0.05126777995413544,-0.3649373915176564,-0.27162012069493124,-0.3475679566211326,-0.22237331802036525,0.01742608953130672
0.416,-0.009218289085545723,-0.05530973451327434,-0.03687315634218289,0.04975573518912341,0.018436578171091445,-0.05530973451327434,-0.041279041675803645,-0.3099993309868315,-0.23665953672076998,-0.34537312588647856,-0.20239584146370168,0.014928904961723773
0.418,-0.009218289085545723,-0.05530973451327434,-0.03687315634218289,0.052252851397051166,0.018436578171091445,-0.05530973451327434,-0.031290303397471984,-0.2550612704560074,-0.20169895274660918,-0.3278882884764316,-0.18241836490703836,0.012431720392140858
0.42,-0.009218289085545723,-0.05530973451327434,-0.03687315634218289,0.05474996760497892,0.018436578171091445,-0.055321568003756434,-0.021301565119140196,-0.20012320992518257,-0.1667383687724479,-0.31040345106638484,-0.1624408883503748,0.00993453582255791
0.422,-0.010850379612166944,-0.058871610178415856,-0.03687315634218289,0.05530973451327434,0.018436578171091445,-0.05781843449547677,-0.018436578171091445,-0.1683373412177776,-0.14424434962628196,-0.2902615088377481,-0.14958716312399425,0.009218289085545723
0.424,-0.013347629237390642,-0.06386597931758176,-0.03687315634218289,0.05530973451327434,0.018436578171091445,-0.06031530098719711,-0.018436578171091445,-0.14586268009153108,-0.12676405763920134,-0.2502961661862126,-0.13959842484566246,0.009218289085545723
0.426,-0.015844878862614275,-0.06886034845674764,-0.03687315634218289,0.05530973451327434,0.018436578171091445,-0.06281216747891745,-0.018436578171091445,-0.12338801896528456,-0.1092837656521207,-0.2103308235346766,-0.12960968656733066,0.009218289085545723
0.428,-0.018342128487837905,-0.07374631268436578,-0.03687315634218289,0.05530973451327434,0.018436578171091445,-0.06374701322700232,-0.018382375715317565,-0.10085915538326415,-0.0916950687534923,-0.1703654808831406,-0.11945834092167723,0.009272491541319603
0.43,-0.018436578171091445,-0.07374631268436578,-0.03687315634218289,0.05530973451327434,0.018436578171091445,-0.06125014673528198,-0.01588519114573462,-0.07588730968743468,-0.06922040762724578,-0.13894638180016833,-0.1019780489345966,0.01176967611090255
0.432,-0.018436578171091445,-0.07374631268436578,-0.03687315634218289,0.05530973451327434,0.018436578171091445,-0.05875328024356164,-0.01338800657615167,-0.0509154639916052,-0.046745746500999254,-0.11896371047440034,-0.08449775694751598,0.014266860680485497
0.434,-0.018436578171091445,-0.07374631268436578,-0.03687315634218289,0.05530973451327434,0.018436578171091445,-0.05625641375184128,-0.010890822006568723,-0.025943618295775725,-0.024271085374752723,-0.0989810391486326,-0.06701746496043534,0.016764045250068443
0.436,-0.01776031843899605,-0.07292166103580583,-0.0382543607585898,0.05530973451327434,0.018436578171091445,-0.05530973451327434,-0.008393637436985775,-0.008393637436985775,-0.008393637436985775,-0.0789983678228646,-0.05283577956759449,0.018436578171091445
0.438,-0.015263068813772417,-0.07042447646622288,-0.040751301333096984,0.05530973451327434,0.018436578171091445,-0.05530973451327434,-0.0058964528674028275,-0.0058964528674028275,-0.0058964528674028275,-0.057174369473688244,-0.04534422585884565,0.018436578171091445
0.44,-0.01276581918854872,-0.06792729189663997,-0.04324824190760413,0.05530973451327434,0.018436578171091445,-0.05530973451327434,-0.003399268297819913,-0.003399268297819913,-0.003399268297819913,-0.03469386423219924,-0.037852672150096904,0.018436578171091445
0.442,-0.010268569563325086,-0.06543010732705702,-0.04574518248211131,0.05530973451327434,0.018436578171091445,-0.05530973451327434,-0.0009020837282369654,-0.0009020837282369654,-0.0009020837282369654,-0.012213358990710532,-0.030361118441348065,0.018436578171091445
0.444,-0.009218289085545723,-0.06293292275747407,-0.04394076779883873,0.053558974183073794,0.020187338501291983,-0.05530973451327434,0.0,0.0,0.0031902016826919643,0.009334828770571584,-0.024464665573945204,0.018436578171091445
0.446,-0.009218289085545723,-0.06043573818789113,-0.04144382722433155,0.05106185797514603,0.022684454709219756,-0.05530973451327434,0.0,0.0,0.00818457082185786,0.011832662686292584,-0.019470296434779308,0.018436578171091445
0.448,-0.009218289085545723,-0.05793855361830818,-0.03894688664982443,0.04856474176721827,0.02518157091714751,-0.05530973451327434,0.0,0.0,0.013178939961023754,0.014330496602013552,-0.014475927295613414,0.018436578171091445
0.45,-0.009218289085545723,-0.055441369048725236,-0.037719576875914165,0.04611526529616671,0.027678687125075267,-0.05530973451327434,0.0,0.0,0.01817330910018965,0.016828330517734552,-0.00948155815644752,0.018436578171091445
0.452,-0.007000610522752519,-0.06004083458153844,-0.04271345802492853,0.048612381504094485,0.030175803333003036,-0.05530973451327434,0.0,0.0023655500341320497,0.016071028136959396,0.018436578171091445,0.0002439110509824758,0.018436578171091445
0.454,-0.004503360897528887,-0.06503520372070433,-0.04770733917394289,0.05110949771202224,0.03267291954093079,-0.05530973451327434,0.0,0.004862734603714997,0.013573843567376448,0.018436578171091445,0.010232649329314267,0.018436578171091445
0.456,-0.0020061112723051898,-0.07002957285987023,-0.05270122032295726,0.05360661391995001,0.03517003574885856,-0.05530973451327434,0.0,0.007359919173297945,0.0110766589977935,0.018436578171091445,0.020221387607646055,0.018436578171091445
0.458,-0.0009822767058368844,-0.07374631268436578,-0.05530973451327434,0.05530973451327434,0.03687315634218289,-0.05803143732415432,0.0,0.009218289085545723,0.009857103742880893,0.018436578171091445,0.028932496571307507,0.018436578171091445
0.46,-0.005976775956284148,-0.07374631268436578,-0.05530973451327434,0.05530973451327434,0.03687315634218289,-0.063025170307595,0.0,0.009218289085545723,0.01235428831246384,0.018436578171091445,0.0339268657104734,0.018436578171091445
0.462,-0.010971275206731542,-0.07374631268436578,-0.05530973451327434,0.05530973451327434,0.03687315634218289,-0.06801890329103569,0.0,0.009218289085545723,0.014851472882046754,0.018436578171091445,0.03892123484963923,0.018436578171091445
0.464,-0.015965774457178807,-0.07374631268436578,-0.05530973451327434,0.05530973451327434,0.03687315634218289,-0.07301263627447636,0.0,0.009218289085545723,0.017348657451629702,0.018436578171091445,0.043915603988805126,0.018436578171091445
0.466,-0.01465103486628931,-0.07797410423472939,-0.0670826746642638,0.05530973451327434,0.04312984178525785,-0.08226642583146844,0.0,0.009218289085545723,0.018436578171091445,0.018436578171091445,0.04890997312797102,0.018436578171091445
0.468,-0.007159285990618415,-0.08546565794347824,-0.0820643181113065,0.05530973451327434,0.05311830661696893,-0.09225389179834981,0.0,0.009218289085545723,0.018436578171091445,0.018436578171091445,0.05390434226713692,0.018436578171091445
0.47,0.0003324628850524809,-0.09295721165222708,-0.09704596155834959,0.05530973451327434,0.06310677144867995,-0.10224135776523118,0.0,0.009218289085545723,0.018436578171091445,0.018436578171091445,0.05889871140630281,0.018436578171091445
0.472,0.007824211760723574,-0.10044876536097593,-0.11296636232462201,0.05530973451327434,0.07309523628039097,-0.1126311624085035,0.0,0.009218289085545723,0.018436578171091445,0.018436578171091445,0.0638930805454687,0.018436578171091445
0.474,0.02954386092170821,-0.10794031906972476,-0.13793576806969382,0.05297538740634029,0.09008674243290414,-0.12511549486710521,0.0,0.009218289085545723,0.018436578171091445,0.018436578171091445,0.0688874496846346,0.018436578171091445
0.476,0.054516357173945186,-0.11543187277847351,-0.16290517381476563,0.050478271198412514,0.10756655588839854,-0.1375998273257069,0.0,0.009218289085545723,0.018436578171091445,0.018436578171091445,0.07388181882380043,0.018436578171091445
0.478,0.0794888534261815,-0.12292342648722245,-0.1878745795598368,0.04798115499048474,0.12504636934389293,-0.1500841597843086,0.0,0.009218289085545723,0.018436578171091445,0.018436578171091445,0.07887618796296639,0.018436578171091445
0.48,0.10354329875719336,-0.1272441365331987,-0.20882733513574753,0.04001737897601251,0.1425261827993871,-0.1613969766851837,0.0,0.009218289085545723,0.018436578171091445,0.018436578171091445,0.08341757943602186,0.018436578171091445
0.482,0.12102404613375924,-0.11725539825486676,-0.2238089785827906,0.015046216896734799,0.16000599625488152,-0.17138444265206507,0.0,0.009218289085545723,0.018436578171091445,0.018436578171091445,0.08591476400560484,0.018436578171091445
0.484,0.13850479351032466,-0.1072666599765351,-0.2387906220298337,-0.009924945182542912,0.17748580971037592,-0.18137190861894645,0.0,0.009218289085545723,0.018436578171091445,0.018436578171091445,0.08841194857518776,0.018436578171091445
0.486,0.1559855408868901,-0.09727792169820318,-0.2537722654768768,-0.0348961072618203,0.19496562316587007,-0.1913593745858278,0.0,0.009218289085545723,0.018436578171091445,0.018436578171091445,0.09090913314477074,0.018436578171091445
0.488,0.18208009937617936,-0.07383148797201083,-0.26520663741437306,-0.06262243412377189,0.2165781837953753,-0.18193991616208668,0.0,0.010441715944442148,0.018436578171091445,0.018436578171091445,0.09340631771435365,0.018436578171091445
0.49,0.21953884375453384,-0.03637371942826612,-0.2751943997124018,-0.09258782861890515,0.24154934587465302,-0.16695871721176464,0.0,0.01293890051402513,0.018436578171091445,0.018436578171091445,0.09590350228393663,0.018436578171091445
0.492,0.2569975881328893,0.0010840491154775974,-0.2851821620104305,-0.122553223114038,0.2665205079539304,-0.1519775182614424,0.0,0.015436085083608045,0.018436578171091445,0.018436578171091445,0.09840068685351955,0.018436578171091445
0.494,0.29445633251124376,0.03854181765922132,-0.29383104091873735,-0.15251861760917126,0.2914916700332081,-0.13380127688095667,0.0,0.017933269653190958,0.018436578171091445,0.018436578171091445,0.10089787142310246,0.018436578171091445
0.496,0.3171355904540839,0.07400571015128353,-0.23140752655605784,-0.17818849582929996,0.2670643949499336,-0.08136708055482951,-0.001993876051682494,0.018436578171091445,0.018436578171091445,0.018436578171091445,0.10538893204436793,0.018436578171091445
0.498,0.33461633783064976,0.10896629412544434,-0.16898401219337994,-0.20315965790857735,0.23460188424687303,-0.02893288422870235,-0.004491060621265409,0.018436578171091445,0.018436578171091445,0.018436578171091445,0.11038330118353376,0.018436578171091445
0.5,0.3520970852072152,0.14392687809960605,-0.10656049783070042,-0.22813081998785506,0.202139373543812,0.023501312097424808,-0.006988245190848389,0.018436578171091445,0.018436578171091445,0.018436578171091445,0.11537767032269973,0.018436578171091445
0.502,0.3665554427196661,0.18022316544819478,-0.04413698346802088,-0.2522603467156531,0.16757277446205185,0.07691768813356518,-0.009485429760431303,0.018436578171091445,0.018703718845977026,0.018436578171091445,0.12010489878697997,0.018436578171091445
0.504,0.3216049494656408,0.2276696722702714,0.018286530894658655,-0.272237276379075,0.12262468271935255,0.13184875095141269,-0.011982614330014284,0.018436578171091445,0.021200903415560007,0.018436578171091445,0.12260208335656296,0.018436578171091445
0.506,0.2766544562116154,0.27511617909234676,0.08071004525733819,-0.2922142060424972,0.07767659097665268,0.18677981376926017,-0.0144797988995972,0.018436578171091445,0.02369808798514292,0.018436578171091445,0.12509926792614587,0.018436578171091445
0.508,0.23170396295758883,0.3225626859144234,0.1431335596200161,-0.3121911357059194,0.032728499233952796,0.2417108765871077,-0.01697698346918018,0.018436578171091445,0.026195272554725903,0.018436578171091445,0.12759645249572885,0.018436578171091445
0.51,0.19299470477295774,0.354445344721424,0.18970592580554657,-0.3095391903531439,-0.0015006517116003873,0.2791283734914666,-0.018436578171091445,0.019474168038763093,0.02765486725663717,0.018436578171091445,0.1290560471976401,0.017398988303419797
0.512,0.1655249588954978,0.364434082999756,0.2271600344231543,-0.28207091206593843,-0.023974697582950327,0.30909077139211066,-0.018436578171091445,0.021971352608346074,0.02765486725663717,0.020514869220719354,0.1290560471976401,0.014901803733836816
0.514,0.1380552130180371,0.3744228212780876,0.26461414304076203,-0.254602633778733,-0.046448743454300265,0.33905316929275475,-0.018436578171091445,0.02446853717792899,0.02765486725663717,0.02301270313644032,0.1290560471976401,0.0124046191642539
0.516,0.11058546714057717,0.3844115595564193,0.30206825165836976,-0.22713435549152786,-0.06892278932564991,0.3688498983266499,-0.018436578171091445,0.026965721747511905,0.02765486725663717,0.02551053705216129,0.1290560471976401,0.009907434594670987
0.518,0.07979109241259169,0.37631990723017406,0.3418769483061743,-0.20358841554046328,-0.11100852687770438,0.3813342307852516,-0.018436578171091445,0.029462906317094886,0.029462906317094886,0.028008370967882255,0.1272480081371824,0.011026328146003439
0.52,0.047326847284684476,0.3613367998126766,0.3818279974982892,-0.18111436966911332,-0.15845373482833203,0.3938185632438533,-0.018436578171091445,0.0319600908866778,0.0319600908866778,0.03050620488360329,0.12475082356759949,0.013523512715586354
0.522,0.014862602156777259,0.34635369239517866,0.4217790466904041,-0.1586403237977637,-0.20589894277895907,0.406302895702455,-0.018436578171091445,0.03445727545626078,0.03445727545626078,0.03300403879932426,0.1222536389980165,0.016020697285169333
0.524,-0.01760164297113081,0.33096406655937716,0.4498148031872194,-0.13499513439487368,-0.24983072013496654,0.40610172636425934,-0.018436578171091445,0.0369544600258437,0.03687315634218289,0.03550187271504522,0.11967515074477279,0.018436578171091445
0.526,-0.06466403114270568,0.3034950362939644,0.4423239814636979,-0.1000355074838849,-0.25981918496667766,0.37863619495533557,-0.018436578171091445,0.039451644595426674,0.03687315634218289,0.03687315634218289,0.11468078160560682,0.018436578171091445
0.528,-0.11211177402195469,0.2760260060285523,0.4348331597401765,-0.06507588057289655,-0.2698076497983886,0.35117066354641185,-0.018436578171091445,0.04194882916500959,0.03687315634218289,0.03687315634218289,0.109686412466441,0.018436578171091445
0.53,-0.15955951690120493,0.24855697576313954,0.427342338016655,-0.03011625366190776,-0.2797961146300997,0.3237051321374881,-0.018436578171091445,0.04444601373459257,0.03687315634218289,0.03687315634218289,0.10469204332727504,0.018436578171091445
0.532,-0.19146461990425062,0.22108794549772748,0.40728217136722406,-0.004196266823179023,-0.27974053493707735,0.2978016214721998,-0.018436578171091445,0.04694319830417548,0.03772490921862976,0.03687315634218289,0.10140117994100295,0.018436578171091445
0.534,-0.18397287102857954,0.1936189152323147,0.3773188844731379,0.008289314216459669,-0.26475783768951094,0.2728329565549964,-0.018436578171091445,0.049440382873758466,0.04022209378821274,0.040672350074026045,0.10140117994100295,0.018436578171091445
0.536,-0.17648112215290865,0.16614988496690264,0.3473555975790525,0.020774895256098526,-0.2497751404419443,0.247864291637793,-0.018436578171091445,0.05193756744334138,0.042719278357795654,0.045668017905467984,0.10140117994100295,0.018436578171091445
0.538,-0.16898937327723776,0.13868085470149058,0.3173923106849663,0.03326047629573738,-0.23479244319437767,0.2228956267205896,-0.018436578171091445,0.054434752012924296,0.04521646292737857,0.050663685736909915,0.10140117994100295,0.018436578171091445
0.54,-0.1570660452633103,0.11445622857454367,0.2809308225114615,0.03687315634218289,-0.2127114251522567,0.19326456655344396,-0.020058780240324384,0.056931936582507274,0.04609144542772861,0.05530973451327434,0.09977897787177001,0.018436578171091445
0.542,-0.14208254751196853,0.09198156744829744,0.24347671389385378,0.03687315634218289,-0.187740263072979,0.16330216865279948,-0.0225559648099073,0.05942912115209019,0.04609144542772861,0.05530973451327434,0.0972817933021871,0.018436578171091445
0.544,-0.12709904976062633,0.06950690632205062,0.20602260527624608,0.03687315634218289,-0.1627691009937013,0.1333397707521554,-0.02505314937949028,0.06192630572167317,0.04609144542772861,0.05530973451327434,0.09478460873260411,0.018436578171091445
0.546,-0.11211555200928454,0.04703224519580438,0.1716386947764464,0.036825516605306696,-0.13798849786192868,0.10699842093902998,-0.027550333949073195,0.06442349029125609,0.04609144542772861,0.05530973451327434,0.0922874241630212,0.018436578171091445
0.548,-0.09937995671937706,0.036520840379652586,0.15166317018038894,0.03432840039737892,-0.12300580061436205,0.09201722198870793,-0.030047518518656172,0.06931332612285807,0.050876747951766624,0.056257590618151374,0.08979023959343822,0.018436578171091445
0.55,-0.08689370859325858,0.02653210210132093,0.1316876455843315,0.03183128418945115,-0.10802310336679542,0.07703602303838589,-0.03254470308823909,0.0743076952620239,0.055871117090932454,0.05875542453387234,0.0872930550238553,0.018436578171091445
0.552,-0.07440746046714042,0.01654336382298901,0.11171212098827403,0.02933416798152338,-0.09304040611922879,0.06205482408806384,-0.03504188765782207,0.07930206440118986,0.060865486230098416,0.061253258449593305,0.08479587045427232,0.018436578171091445
0.554,-0.06296393684414138,0.007886457315101536,0.09294466933581488,0.028472682739678692,-0.07805770887166236,0.04844631003366389,-0.03687315634218289,0.0836305176551336,0.06519393948404215,0.06375109236531427,0.08096685411424523,0.017770662285869352
0.556,-0.05547218796847029,0.0028920881759357067,0.07546608531426506,0.030969798947606462,-0.06307501162409573,0.035961977575062185,-0.03687315634218289,0.08612770222471651,0.06769112405362507,0.06796982896325056,0.07347530040549648,0.015273477716286437
0.558,-0.04798043909279939,-0.0021022809632302536,0.057987501292714794,0.03346691515553423,-0.04809231437652911,0.023477645116460482,-0.03687315634218289,0.08862488679429949,0.07018830862320805,0.0729654967946925,0.06598374669674754,0.012776293146703458
0.56,-0.0404886902171283,-0.007096650102396083,0.04050891727116453,0.03596403136346197,-0.033109617128962675,0.010993312657858778,-0.03687315634218289,0.09112207136388241,0.07268549319279097,0.07796116462613442,0.05849219298799879,0.010279108577120543
0.562,-0.0355810846752744,-0.009218289085545723,0.03291806403002043,0.03528516511297604,-0.024478884798223462,0.00707642730828796,-0.03687315634218289,0.09361925593346539,0.0766190428403821,0.0829568324575765,0.05243700435725802,0.007781924007537562
0.564,-0.03308383505005076,-0.009218289085545723,0.027924182881006062,0.032788048905048266,-0.01948465238236792,0.004579560816567619,-0.03687315634218289,0.0961164405030483,0.08161341197954793,0.08545855102946497,0.04744263521809219,0.0052847394379546475
0.566,-0.030586585424827065,-0.009218289085545723,0.02293030173199183,0.030290932697120528,-0.014490419966512442,0.0020826943248472784,-0.03687315634218289,0.09861362507263129,0.0866077811187139,0.08795638494518593,0.042448266078926225,0.002787554868371667
0.568,-0.028089335799603436,-0.009218289085545723,0.018436578171091445,0.027793816489192758,-0.0094961875506569,-0.0004141721668730625,-0.03687315634218289,0.1011108096422142,0.09160215025787972,0.0904542188609069,0.037453896939760395,0.0002903702987887521
0.57,-0.025592086174379736,-0.011425103356339951,0.018436578171091445,0.025296700281264985,-0.009218289085545723,-0.0029110386585934032,-0.03907997061297712,0.10581480848259141,0.09218289085545722,0.09372121469779864,0.03687315634218289,0.0
0.572,-0.023094836549156107,-0.013922287925922865,0.018436578171091445,0.022799584073337247,-0.009218289085545723,-0.005407905150313744,-0.041577155182560034,0.11080917762175724,0.09218289085545722,0.09871688252924057,0.03687315634218289,0.0
0.574,-0.020597586923932473,-0.016419472495505846,0.018436578171091445,0.020302467865409474,-0.009218289085545723,-0.007904771642034085,-0.04407433975214301,0.11580354676092319,0.09218289085545722,0.10371255036068251,0.03687315634218289,0.0
0.576,-0.018436578171091445,-0.018436578171091445,0.01741702616455152,0.018436578171091445,-0.008587062571935982,-0.010401638133754425,-0.04657152432172593,0.12031783700609171,0.09266296974945454,0.10870821819212458,0.03687315634218289,0.0
0.578,-0.018436578171091445,-0.018436578171091445,0.014920085590044338,0.018436578171091445,-0.006089946364008244,-0.012898504625474767,-0.04906870889130884,0.12281502157567463,0.09516015431903746,0.1121616775250576,0.03687315634218289,0.0
0.58,-0.018436578171091445,-0.018436578171091445,0.012423145015537157,0.018436578171091445,-0.0035928301560804727,-0.015395371117195107,-0.051565893460891826,0.1253122061452576,0.09765733888862044,0.11465951144077856,0.03687315634218289,0.0
0.582,-0.018436578171091445,-0.018436578171091445,0.009926204441029976,0.018436578171091445,-0.0010957139481527016,-0.017892237608915448,-0.05406307803047474,0.12780939071484052,0.10015452345820335,0.11715734535649952,0.03687315634218289,0.0
0.584,-0.018436578171091445,-0.018436578171091445,0.007429263866522794,0.018436578171091445,0.0,-0.018436578171091445,-0.05656026260005772,0.13155710337120688,0.10265170802778634,0.11965517927222057,0.03687315634218289,0.0012505280867833829
0.586,-0.018436578171091445,-0.018436578171091445,0.004932323292015678,0.018436578171091445,0.0,-0.018436578171091445,-0.059057447169640634,0.13655147251037272,0.10514889259736925,0.12446826826378866,0.03687315634218289,0.0037477126563662975
0.588,-0.018436578171091445,-0.018436578171091445,0.0024353827175084965,0.018436578171091445,0.0,-0.018436578171091445,-0.06155463173922361,0.14154584164953868,0.10764607716695222,0.1294639360952306,0.03687315634218289,0.006244897225949278
0.59,-0.018436578171091445,-0.018436578171091445,0.0,0.018436578171091445,0.0,-0.018436578171091445,-0.06405181630880653,0.1465402107887045,0.11014326173653514,0.13445960392667267,0.03687315634218289,0.008742081795532193
0.592,-0.018436578171091445,-0.018436578171091445,0.0,0.018436578171091445,0.0,-0.018436578171091445,-0.06654900087838951,0.14951360264830102,0.11466142358568757,0.1388648040206502,0.04091511090132179,0.011239266365115174
0.594,-0.018436578171091445,-0.018436578171091445,0.0,0.018436578171091445,0.0,-0.018436578171091445,-0.06904618544797242,0.1520107872178839,0.1196557927248534,0.1413626379363712,0.04590948004048762,0.013736450934698087
0.596,-0.018436578171091445,-0.018436578171091445,0.0,0.018436578171091445,0.0,-0.018436578171091445,-0.0715433700175554,0.15450797178746692,0.12465016186401937,0.14386047185209216,0.05090384917965358,0.016233635504281068
0.598,-0.018134339184680017,-0.018436578171091445,-0.0008310310694816219,0.018436578171091445,0.0004446375441779241,-0.018436578171091445,-0.07404055458713832,0.1570051563570498,0.1290560471976401,0.1463583057678132,0.056486702124364484,0.018436578171091445
0.6,-0.013139839934232752,-0.018436578171091445,-0.003327971643988803,0.018436578171091445,0.0029417537521056625,-0.018436578171091445,-0.07653773915672123,0.15950234092663274,0.1290560471976401,0.14885613968353414,0.06647544040269615,0.018436578171091445
0.602,-0.008145340683785487,-0.018436578171091445,-0.005824912218495985,0.018436578171091445,0.005438869960033467,-0.018436578171091445,-0.07903492372630422,0.1619995254962157,0.1290560471976401,0.15135397359925512,0.07646417868102806,0.018436578171091445
0.604,-0.003150841433337962,-0.018436578171091445,-0.008321852793003166,0.018436578171091445,0.007935986167961205,-0.018436578171091445,-0.08153210829588713,0.16449671006579863,0.1290560471976401,0.15385180751497615,0.08645291695935972,0.018436578171091445
0.606,0.0,-0.018436578171091445,-0.007617784803581163,0.018436578171091445,0.010433102375888943,-0.018436578171091445,-0.0840292928654701,0.1680585857309402,0.13012073829319873,0.15634964143069713,0.09537696414213304,0.018436578171091445
0.608,0.0,-0.018436578171091445,-0.005120844229073982,0.018436578171091445,0.012930218583816747,-0.018436578171091445,-0.08652647743505303,0.17305295487010605,0.13261792286278162,0.15884747534641808,0.10286851785088179,0.018436578171091445
0.61,0.0,-0.018436578171091445,-0.002623903654566801,0.018436578171091445,0.015427334791744485,-0.018436578171091445,-0.089023662004636,0.178047324009272,0.13511510743236463,0.16134530926213905,0.11036007155963072,0.018436578171091445
0.612,0.0,-0.018436578171091445,-0.00012696308005961945,0.018436578171091445,0.017924450999672225,-0.018436578171091445,-0.09152084657421891,0.18304169314843782,0.13761229200194752,0.16384314317786008,0.11785162526837947,0.018436578171091445
0.614,0.0016925383239034559,-0.01660143788274677,0.0,0.01645158913458286,0.018436578171091445,-0.018436578171091445,-0.09218289085545722,0.18436578171091444,0.13827433628318583,0.16592920353982302,0.1253431789771284,0.018436578171091445
0.616,0.004189787949127219,-0.014104253313163858,0.0,0.013954472926655125,0.018436578171091445,-0.018436578171091445,-0.09218289085545722,0.18436578171091444,0.13827433628318583,0.16592920353982302,0.13283473268587714,0.018436578171091445
0.618,0.006687037574350851,-0.011607068743580877,0.0,0.011457356718727385,0.018436578171091445,-0.018436578171091445,-0.09218289085545722,0.18436578171091444,0.13827433628318583,0.16592920353982302,0.1403262863946261,0.018436578171091445
0.62,0.009184287199574483,-0.009109884173997962,-0.0012850202648466355,0.008960240510799583,0.018436578171091445,-0.018436578171091445,-0.09229129576700498,0.18425737679936668,0.13816593137163807,0.16592920353982302,0.14749262536873156,0.018436578171091445
0.622,0.011681536824798115,-0.006612699604415048,-0.006278901413860998,0.006463124302871844,0.018436578171091445,-0.018436578171091445,-0.0947884803365879,0.1817601922297838,0.13566874680205515,0.16592920353982302,0.14749262536873156,0.018436578171091445
0.624,0.014178786450021746,-0.004115515034832068,-0.011272782562875361,0.0039660080949441056,0.018436578171091445,-0.018436578171091445,-0.09728566490617088,0.17926300766020078,0.13317156223247217,0.16592920353982302,0.14749262536873156,0.018436578171091445
0.626,0.01667603607524551,-0.001618330465249153,-0.016266663711889593,0.0014688918870163013,0.018436578171091445,-0.018436578171091445,-0.09978284947575379,0.1767658230906179,0.13067437766288928,0.16592920353982302,0.14749262536873156,0.018436578171091445
0.628,0.019173285700469143,0.0,-0.018436578171091445,0.0,0.02049302681291432,-0.018436578171091445,-0.10140117994100295,0.1742686385210349,0.1290560471976401,0.16592920353982302,0.14925033357739922,0.018436578171091445
0.63,0.021670535325692773,0.0,-0.018436578171091445,0.0,0.025487259228769796,-0.018436578171091445,-0.10140117994100295,0.171771453951452,0.1290560471976401,0.16592920353982302,0.15424470271656504,0.018436578171091445
0.632,0.024167784950916406,0.0,-0.018436578171091445,0.0,0.030481491644625405,-0.018436578171091445,-0.10140117994100295,0.169274269381869,0.1290560471976401,0.16592920353982302,0.159239071855731,0.018436578171091445
0.634,0.026665034576140036,0.0,-0.018436578171091445,0.0,0.03547572406048088,-0.018436578171091445,-0.10140117994100295,0.1667770848122861,0.1290560471976401,0.16592920353982302,0.16423344099489684,0.018436578171091445
0.636,0.02765486725663717,0.0,-0.018436578171091445,-0.0017984000670767336,0.03687315634218289,-0.018436578171091445,-0.09975187664388305,0.16427990024270311,0.1290560471976401,0.16569612416977128,0.16592920353982302,0.02008588146821134
0.638,0.02765486725663717,0.0,-0.018436578171091445,-0.0042955162750045375,0.03687315634218289,-0.018436578171091445,-0.09725469207430014,0.1617827156731202,0.1290560471976401,0.1631982902540503,0.16592920353982302,0.022583066037794256
0.64,0.02765486725663717,0.0,-0.018436578171091445,-0.006792632482932276,0.03687315634218289,-0.018436578171091445,-0.09475750750471716,0.15928553110353721,0.1290560471976401,0.16070045633832927,0.16592920353982302,0.025080250607377234
0.642,0.02765486725663717,0.0,-0.019344556561821474,-0.009289748690860014,0.03687315634218289,-0.018436578171091445,-0.09226032293513424,0.1567883465339543,0.1290560471976401,0.15820262242260832,0.16592920353982302,0.02757743517696015
0.644,0.03221111997678804,0.0,-0.024338437710835836,-0.011786864898787818,0.03687315634218289,-0.018436578171091445,-0.08976313836555133,0.1494516569845596,0.12421654221782832,0.1546986625594974,0.1610896985600112,0.02523511476673127
0.646,0.037205619227235566,0.0,-0.029332318859850066,-0.014283981106715556,0.03687315634218289,-0.018436578171091445,-0.08726595379596835,0.14196010327581066,0.11922217307866237,0.14970299472805548,0.15609532942084525,0.02273793019714829
0.648,0.04220011847768283,0.0,-0.03432620000886443,-0.016781097314643296,0.03687315634218289,-0.018436578171091445,-0.08476876922638543,0.13446854956706192,0.11422780393949654,0.14470732689661342,0.15110096028167944,0.020240745627565376
0.65,0.04664303157792935,0.0,-0.03809661875003084,-0.018436578171091445,0.0385564270451422,-0.019821096557495598,-0.0815785675436934,0.12697699585831296,0.10992645191343962,0.13971165906517147,0.14610659114251345,0.018436578171091445
0.652,0.04914028120315299,0.0,-0.04059355932453802,-0.018436578171091445,0.043550659460997676,-0.02231796304921594,-0.07658419840452757,0.11948544214956422,0.1074292673438567,0.13471599123372954,0.14111222200334764,0.018436578171091445
0.654,0.05163753082837662,0.0,-0.04309049989904514,-0.018436578171091445,0.04854489187685315,-0.02481482954093628,-0.07158982926536162,0.11199388844081529,0.10493208277427372,0.12972032340228748,0.13611785286418168,0.018436578171091445
0.656,0.05413478045360025,0.0,-0.04558744047355232,-0.018436578171091445,0.05353912429270876,-0.02731169603265662,-0.06659546012619579,0.10450233473206653,0.10243489820469082,0.12472465557084554,0.13112348372501584,0.018436578171091445
0.658,0.05530973451327434,0.0,-0.044098509807397726,-0.018436578171091445,0.056921545610919284,-0.02765486725663717,-0.06160109098702982,0.09847424732921271,0.09847424732921271,0.119783372925749,0.12612911458584988,0.018436578171091445
0.66,0.05530973451327434,0.0,-0.041601569232890545,-0.018436578171091445,0.05941866181884702,-0.02765486725663717,-0.05660672184786399,0.09347987819004688,0.09347987819004688,0.11728553901002803,0.12113474544668405,0.018436578171091445
0.662,0.05530973451327434,0.0,-0.039104628658383364,-0.018436578171091445,0.06191577802677483,-0.02765486725663717,-0.05161235270869803,0.08848550905088093,0.08848550905088093,0.114787705094307,0.1161403763075181,0.018436578171091445
0.664,0.05530973451327434,0.0,-0.03740409285879618,-0.018436578171091445,0.06441289423470256,-0.02765486725663717,-0.04661798356953221,0.0834911399117151,0.0834911399117151,0.11228987117858603,0.11114600716835227,0.018436578171091445
0.666,0.057402739494172815,0.0,-0.04239797400781054,-0.02081856501490169,0.06452802359882005,-0.02765486725663717,-0.04162361443036638,0.07626285527386814,0.07849677077254927,0.10813717373549786,0.10838555352786755,0.013968747173729206
0.668,0.059899989119396584,0.0,-0.047391855156824904,-0.023315681222829496,0.06452802359882005,-0.02765486725663717,-0.036629245291200416,0.06877130156511921,0.0735024016333833,0.10064367198833495,0.10588836895828457,0.008974378034563246
0.67,0.06239723874462021,0.0,-0.052385736305839266,-0.025812797430757234,0.06452802359882005,-0.02765486725663717,-0.031634876152034586,0.06127974785637046,0.06850803249421747,0.09315017024117185,0.10339118438870165,0.003980008895397417
0.672,0.06526095314086763,0.0005071801218842716,-0.05634467598406398,-0.028964960020732778,0.06583811636291567,-0.02885004979532797,-0.026640507012868624,0.053788194147621524,0.06351366335505151,0.08565666849400895,0.10089399981911867,0.0
0.674,0.0702554523913149,0.0030043646914671863,-0.0588416165585711,-0.03395919243658838,0.07083234877877127,-0.03134691628704831,-0.021646137873702793,0.04629664043887278,0.058519294215885684,0.07976364508786786,0.09839681524953577,0.0
0.676,0.07524995164176215,0.005501549261050166,-0.06133855713307828,-0.03895342485244386,0.07582658119462675,-0.03384378277876865,-0.016651768734536835,0.03880508673012383,0.05352492507671972,0.0747679772564258,0.09589963067995279,0.0
0.678,0.08024445089220969,0.00799873383063308,-0.06383549770758547,-0.043947657268299335,0.08082081361048223,-0.03634064927048899,-0.011657399595371005,0.031313533021375094,0.0485305559375539,0.06977230942498386,0.09340244611036987,0.0
0.68,0.08523895014265695,0.010495918400216062,-0.06633243828209265,-0.04609144542772861,0.08581504602633784,-0.03687315634218289,-0.007940659770875384,0.025099608627296488,0.04353618679838794,0.06477664159354193,0.08962763222611654,-0.0025552586293406785
0.682,0.09023344939310421,0.012993102969798977,-0.06882937885659983,-0.04609144542772861,0.09080927844219332,-0.03687315634218289,-0.0054434752012924685,0.02010523948813066,0.038541817659222107,0.059780973762099995,0.08463326308695072,-0.007549627768506508
0.684,0.09522794864355148,0.015490287539381956,-0.07132631943110701,-0.04609144542772861,0.0958035108580488,-0.03687315634218289,-0.0029462906317094884,0.0151108703489647,0.033547448520056145,0.05478530593065793,0.07963889394778476,-0.012543996907672468
0.686,0.10022244789399874,0.017987472108964873,-0.07390020732686259,-0.04609144542772861,0.1007977432739044,-0.03687315634218289,-0.00044910606212657364,0.01011650120979887,0.028553079380890314,0.049789638099215994,0.07464452480861893,-0.017538366046838297
0.688,0.10712483074616792,0.020484656678547788,-0.07889408847587695,-0.05048224117648554,0.10579197568975987,-0.03687315634218289,0.0,0.007170210578089382,0.02765486725663717,0.044793970267774055,0.07374631268436578,-0.018436578171091445
0.69,0.11461657962183881,0.022981841248130765,-0.08388796962489105,-0.055476473592341015,0.11078620810561535,-0.03687315634218289,0.0,0.004673026008506402,0.02765486725663717,0.03979830243633199,0.07374631268436578,-0.018436578171091445
0.692,0.12210832849750972,0.02547902581771368,-0.08888185077390541,-0.06047070600819662,0.11578044052147096,-0.03687315634218289,0.0,0.0021758414389234865,0.02765486725663717,0.03480263460489006,0.07374631268436578,-0.018436578171091445
0.694,0.12941873398133377,0.02765486725663717,-0.0930293113891885,-0.0654649384240521,0.12077467293732644,-0.03687315634218289,0.0003213431306594939,-0.0003213431306594939,0.027333524125977674,0.029806966773448122,0.0731036264230468,-0.018436578171091445
0.696,0.13441323323178103,0.02765486725663717,-0.09552625196369569,-0.07045917083990758,0.12576890535318191,-0.03687315634218289,0.0028185277002424087,-0.0028185277002424087,0.02483633955639476,0.024811298942006187,0.06810925728388097,-0.018436578171091445
0.698,0.13940773248222857,0.02765486725663717,-0.09802319253820287,-0.07545340325576319,0.13076313776903753,-0.03687315634218289,0.005315712269825389,-0.005315712269825389,0.022339154986811778,0.01981563111056412,0.063114888144715,-0.018436578171091445
0.7,0.14440223173267583,0.02765486725663717,-0.10052013311271005,-0.08044763567161867,0.135757370184893,-0.03687315634218289,0.007812896839408303,-0.007812896839408303,0.019841970417228863,0.014819963279122187,0.058120519005549175,-0.018436578171091445
0.702,0.15130083659751464,0.02874665958008273,-0.1046329674334315,-0.08544186808747414,0.1419902357595298,-0.038648179914495914,0.010310081408991284,-0.009218289085545723,0.018436578171091445,0.009824295447680252,0.05203435754293765,-0.018436578171091445
0.704,0.16128983509840916,0.031243844149665644,-0.10962684858244587,-0.09043610050332974,0.14948158438331322,-0.04114504640621625,0.012807265978574199,-0.009218289085545723,0.018436578171091445,0.009218289085545723,0.044542803834188904,-0.018436578171091445
0.706,0.17127883359930368,0.033741028719248556,-0.11462072973146023,-0.09543033291918522,0.15697293300709642,-0.04364191289793659,0.015304450548157114,-0.009218289085545723,0.018436578171091445,0.009218289085545723,0.037051250125440166,-0.018436578171091445
0.708,0.18126783210019823,0.03623821328883154,-0.11961461088047459,-0.1004245653350407,0.16446428163087964,-0.046138779389657,0.017801635117740095,-0.009218289085545723,0.018436578171091445,0.009218289085545723,0.029559696416691223,-0.018436578171091445
0.71,0.18781130615600386,0.03873539785841452,-0.12699385898818585,-0.10340998884594962,0.16994682134971636,-0.048635645881377344,0.018436578171091445,-0.009218289085545723,0.018436578171091445,0.009218289085545723,0.020205901191710653,-0.020298819687323073
0.712,0.19280580540645112,0.04123258242799743,-0.13448468071170738,-0.10590710505387736,0.17494105376557184,-0.05113251237309768,0.018436578171091445,-0.009218289085545723,0.018436578171091445,0.009218289085545723,0.010217162913378994,-0.022796004256905988
0.714,0.19780030465689838,0.04372976699758035,-0.14197550243522894,-0.1084042212618051,0.17993528618142732,-0.05362937886481802,0.018436578171091445,-0.009218289085545723,0.018436578171091445,0.009218289085545723,0.0002284246350473342,-0.025293188826488903
0.716,0.20279480390734564,0.04622695156716326,-0.14815052496540454,-0.11146507435610138,0.18492951859728293,-0.056126245356538366,0.018436578171091445,-0.009218289085545723,0.018301072031656793,0.009218289085545723,-0.009353795224980373,-0.02765486725663717
0.718,0.21277624643357992,0.04872413613674631,-0.1506474655399117,-0.1189564229798846,0.1899237510131384,-0.058623111848258705,0.018436578171091445,-0.009218289085545723,0.01580388746207375,0.009218289085545723,-0.01185097979456342,-0.02765486725663717
0.72,0.22276524493447497,0.051221320706329225,-0.1531444061144189,-0.12644777160366782,0.19491798342899389,-0.06111997833997904,0.018436578171091445,-0.009218289085545723,0.013306702892490835,0.009218289085545723,-0.014348164364146333,-0.02765486725663717
0.722,0.23275424343536952,0.05371850527591214,-0.15564134668892607,-0.13393912022745122,0.1999122158448495,-0.06361684483169938,0.018436578171091445,-0.009218289085545723,0.01080951832290792,0.009218289085545723,-0.01684534893372925,-0.02765486725663717
0.724,0.2404424476522076,0.05530973451327434,-0.15956566007258924,-0.13932638047253537,0.20490644826070498,-0.06452802359882005,0.018436578171091445,-0.009218289085545723,0.009218289085545723,0.009218289085545723,-0.0211544441677536,-0.028560822588857886
0.726,0.24293969727743123,0.05530973451327434,-0.1645595412216036,-0.14182349668046312,0.20990068067656045,-0.06452802359882005,0.018436578171091445,-0.009218289085545723,0.009218289085545723,0.011234425636493097,-0.028645997876502738,-0.031058007158440933
0.728,0.24543694690265486,0.05530973451327434,-0.16955342237061768,-0.1443206128883909,0.21489491309241604,-0.06452802359882005,0.018436578171091445,-0.009218289085545723,0.009218289085545723,0.013732259552214065,-0.03613755158525148,-0.03355519172802385
0.73,0.24793419652787863,0.05530973451327434,-0.17454730351963205,-0.14681772909631866,0.21988914550827152,-0.06452802359882005,0.018436578171091445,-0.009218289085545723,0.009218289085545723,0.016230093467935164,-0.04362910529400023,-0.03605237629760676
0.732,0.25196908699647,0.05698613903828112,-0.17954118466864644,-0.14931484530424638,0.224883377924127,-0.06688288820475537,0.01676017364608466,-0.007541884560538937,0.010894693610552508,0.018436578171091445,-0.0477678499527354,-0.03687315634218289
0.734,0.2569635862469173,0.059483323607864035,-0.1845350658176608,-0.1518119615121742,0.2298776103399826,-0.06937975469647571,0.014262989076501744,-0.005044699990956023,0.013391878180135423,0.018436578171091445,-0.050265034522318314,-0.03687315634218289
0.736,0.26195808549736455,0.06198050817744708,-0.18952894696667516,-0.15430907772010194,0.23487184275583808,-0.07187662118819604,0.0117658045069187,-0.0025475154213729766,0.01588906274971847,0.018436578171091445,-0.05276221909190136,-0.03687315634218289
0.738,0.2669525847478118,0.06447769274703,-0.19452282811568952,-0.15680619392802966,0.23986607517169356,-0.07374631268436578,0.009268619937335784,-5.0330851790061723e-05,0.018386247319301382,0.018436578171091445,-0.055259403661484276,-0.03687315634218289
0.74,0.27194708399825934,0.0669748773166129,-0.19951670926470388,-0.15930331013595747,0.24486030758754918,-0.07374631268436578,0.011665142803338576,-0.002446853717792853,0.018436578171091445,0.018436578171091445,-0.05775658823106719,-0.03687315634218289
0.742,0.2769415832487066,0.06947206188619583,-0.20451059041371825,-0.16180042634388522,0.24985454000340465,-0.07374631268436578,0.014162327372921491,-0.004944038287375768,0.018436578171091445,0.018436578171091445,-0.060253772800650106,-0.03687315634218289
0.744,0.28193608249915386,0.07196924645577887,-0.2095044715627326,-0.16429754255181303,0.25484877241926024,-0.07374631268436578,0.016659511942504535,-0.007441222856958814,0.018436578171091445,0.018436578171091445,-0.06275095737023315,-0.03687315634218289
0.746,0.2869305817496011,0.07374631268436578,-0.21325950083964929,-0.16679465875974075,0.258977549615198,-0.07374631268436578,0.018436578171091445,-0.009218289085545723,0.01771645983009544,0.018436578171091445,-0.06524814193981607,-0.0383133930241749
0.748,0.2919250810000484,0.07374631268436578,-0.21575644141415634,-0.1692917749676685,0.26147466582312573,-0.07374631268436578,0.018436578171091445,-0.009218289085545723,0.015219275260512524,0.018436578171091445,-0.06774532650939898,-0.04330776216334073
0.75,0.29691958025049564,0.07374631268436578,-0.2182533819886635,-0.1717888911755963,0.26397178203105354,-0.07374631268436578,0.018436578171091445,-0.009218289085545723,0.01272209069092961,0.018436578171091445,-0.0702425110789819,-0.04830213130250656
0.752,0.3019140795009432,0.07374631268436578,-0.2207503225631707,-0.17428600738352404,0.2664688982389813,-0.07374631268436578,0.018436578171091445,-0.009218289085545723,0.010224906121346695,0.018436578171091445,-0.0727396956485648,-0.05329650044167239
0.754,0.30149850089462726,0.07225574515058371,-0.22123893805309736,-0.17514749262536872,0.2656947525147429,-0.07374631268436578,0.016946010637309373,-0.009218289085545723,0.010708856619327797,0.018436578171091445,-0.07225574515058371,-0.05680030204705641
0.756,0.29650400164418,0.06975856058100079,-0.22123893805309736,-0.17514749262536872,0.2631976363068151,-0.07374631268436578,0.014448826067726458,-0.009218289085545723,0.01320604118891071,0.018436578171091445,-0.06975856058100079,-0.059297486616639326
0.758,0.29150950239373274,0.06726137601141788,-0.22123893805309736,-0.17514749262536872,0.2607005200988874,-0.07374631268436578,0.011951641498143543,-0.009218289085545723,0.015703225758493627,0.018436578171091445,-0.06726137601141788,-0.06179467118622224
0.76,0.2865150031432855,0.06476419144183496,-0.22095808033054098,-0.17514749262536872,0.25820340389095964,-0.0746219909800403,0.009454456928560628,-0.009218289085545723,0.018200410328076542,0.018436578171091445,-0.06476419144183496,-0.06429185575580515
0.762,0.2793972750132982,0.062267006872251916,-0.2184611397560338,-0.1679300724886235,0.2533004809707834,-0.07961572396348097,0.011479305812113863,-0.011479305812113863,0.016175561444523305,0.018436578171091445,-0.062267006872251916,-0.0667890403253882
0.764,0.2719055261376273,0.059769822302669,-0.21596419918152662,-0.1604387238648403,0.24830624855492794,-0.08460945694692165,0.013976490381696778,-0.013976490381696778,0.01367837687494039,0.018436578171091445,-0.059769822302669,-0.06928622489497112
0.766,0.2644137772619564,0.057272637733086086,-0.21346725860701943,-0.15294737524105706,0.24331201613907247,-0.08960318993036234,0.016473674951279695,-0.016473674951279695,0.011181192305357475,0.018436578171091445,-0.057272637733086086,-0.07178340946455403
0.768,0.25692202838628553,0.05424117181373201,-0.20781932522739469,-0.14613489286775963,0.23696005122224492,-0.09097587482628433,0.018436578171091445,-0.017902296821320284,0.009218289085545723,0.018436578171091445,-0.05370689046396085,-0.07374631268436578
0.77,0.24943027951061464,0.04924680267456618,-0.19783156292936596,-0.14114066045190415,0.22697158639053397,-0.08847900833456399,0.018436578171091445,-0.015405112251737367,0.009218289085545723,0.01677782998755673,-0.046215336755212104,-0.07374631268436578
0.772,0.24193853063494333,0.044252433535400086,-0.18784380063133724,-0.13614642803604868,0.21698312155882302,-0.08598214184284365,0.018436578171091445,-0.012907927682154322,0.009218289085545723,0.01427999607183563,-0.03872378304646296,-0.07374631268436578
0.774,0.23444678175927244,0.03925806439623426,-0.1778560383333085,-0.13115219562019306,0.2069946567271118,-0.08348527535112331,0.018436578171091445,-0.010410743112571407,0.009218289085545723,0.011782162156114663,-0.03123222933771422,-0.07374631268436578
0.776,0.22345283862856002,0.03426369525706843,-0.16968808018280201,-0.12325987921103507,0.19700619189540083,-0.07901221594889443,0.018436578171091445,-0.007913558542988492,0.010523019628102953,0.009284328240393696,-0.02504540617152271,-0.07244158214180856
0.778,0.20846934087721825,0.0292693261179026,-0.16219725845928046,-0.1132714143793241,0.18701772706368988,-0.07401848296545374,0.018436578171091445,-0.005416373973405578,0.013020204197685868,0.009218289085545723,-0.02005103703235688,-0.06994439757222563
0.78,0.19348584312587644,0.02427495697873651,-0.15470643673575893,-0.10328294954761288,0.17702926223197868,-0.06902474998201306,0.018436578171091445,-0.0029191894038225323,0.015517388767268913,0.009218289085545723,-0.015056667893190786,-0.06744721300264259
0.782,0.17850234537453388,0.01928058783957068,-0.14703094144124126,-0.09329448471590193,0.16704079740026773,-0.06427952029869623,0.018436578171091445,-0.0004220048342396173,0.018014573336851827,0.009218289085545723,-0.010062298754024958,-0.06495002843305968
0.784,0.16545695512355485,0.01636139843574815,-0.13454623856870535,-0.08552523762700755,0.15705233256855677,-0.06178265380697588,0.020511757906434742,0.0020751797353432975,0.020511757906434742,0.009925296508035898,-0.005067929614859128,-0.06660320333416335
0.786,0.1529707069974367,0.013864213866165234,-0.12206153569616945,-0.07803388900322414,0.14706386773684554,-0.059285787315255536,0.023008942476017657,0.0045723643049262125,0.023008942476017657,0.012423130423756996,-7.356047569329814e-05,-0.06910038790374627
0.788,0.14048445887131852,0.011367029296582187,-0.1095768328236342,-0.07054254037944092,0.1370754029051346,-0.0567889208235352,0.025506127045600704,0.007069548874509258,0.025506127045600704,0.014920964339477963,0.004920808663472794,-0.07159757247332932
0.79,0.12799821074520037,0.008521400368452822,-0.09967755994504109,-0.06255891447460359,0.12708693807342364,-0.05429205433181486,0.02800331161518362,0.009566733444092172,0.02800331161518362,0.01741879825519893,0.009915177802638623,-0.07374631268436578
0.792,0.11551196261908156,0.0035270312292869925,-0.09468367879602672,-0.05257044964289237,0.11709847324171242,-0.051795187840094514,0.030500496184766534,0.012063918013675087,0.030500496184766534,0.018436578171091445,0.014909546941804453,-0.07374631268436578
0.794,0.1030257144929634,-0.0014673379098788368,-0.08968979764701236,-0.04258198481118142,0.10711000841000147,-0.049298321348374176,0.032997680754349445,0.014561102583258002,0.032997680754349445,0.018436578171091445,0.019903916080970283,-0.07374631268436578
0.796,0.09053946636684525,-0.0064617070490446665,-0.084695916497998,-0.032593519979470464,0.09712154357829052,-0.04680145485665384,0.03549486532393236,0.017058287152840915,0.03549486532393236,0.018436578171091445,0.02489828522013611,-0.07374631268436578
0.798,0.07903549494656396,-0.01033718263687824,-0.07643946892805577,-0.023867508174978725,0.0871330787465793,-0.04430458836493343,0.03687315634218289,0.018436578171091445,0.03687315634218289,0.018436578171091445,0.028773760807969687,-0.07374631268436578
0.8,0.06904649644566944,-0.012834367206461155,-0.06645170663002704,-0.01637615955119551,0.07714461391486835,-0.041807721873213084,0.03687315634218289,0.018436578171091445,0.03687315634218289,0.018436578171091445,0.0312709453775526,-0.07374631268436578
0.802,0.05905749794477491,-0.01533155177604407,-0.05646394433199831,-0.008884810927412296,0.0671561490831574,-0.039310855381492746,0.03687315634218289,0.018436578171091445,0.03687315634218289,0.018436578171091445,0.03376812994713552,-0.07374631268436578
0.804,0.04906849944387986,-0.017828736345626983,-0.04647618203396959,-0.0013934623036288842,0.05716768425144618,-0.03687315634218289,0.03687315634218289,0.018436578171091445,0.03687315634218289,0.018436578171091445,0.03626531451671843,-0.07374631268436578
0.806,0.04083248706417115,-0.018436578171091445,-0.04128993258183474,0.002032628773384777,0.04921184819312,-0.03687315634218289,0.0349838135980643,0.018436578171091445,0.03687315634218289,0.018964891409875357,0.03876249908630148,-0.07374631268436578
0.808,0.03334073818850026,-0.018436578171091445,-0.036296051432820636,0.004529744981312515,0.04172049956933679,-0.03687315634218289,0.032486629028481394,0.018436578171091445,0.03687315634218289,0.021462725325596323,0.04125968365588439,-0.07374631268436578
0.81,0.02584898931282936,-0.018436578171091445,-0.031302170283806274,0.007026861189240319,0.03422915094555338,-0.03687315634218289,0.029989444458898475,0.018436578171091445,0.03687315634218289,0.023960559241317292,0.0437568682254673,-0.07374631268436578
0.812,0.018357240437158466,-0.01876179290573466,-0.026308289134791912,0.009829665708790392,0.027043490633392498,-0.03604481200843677,0.02749225988931556,0.018436578171091445,0.036710548974861285,0.026458393157038258,0.04625405279505022,-0.07374631268436578
0.814,0.010865491561487176,-0.023756162044900487,-0.02131440798577755,0.01482389812464587,0.022049258217537022,-0.03354794551671642,0.024995075319732645,0.018436578171091445,0.03421336440527837,0.02765486725663717,0.04875123736463313,-0.07374631268436578
0.816,0.00337374268581628,-0.02875053118406658,-0.01632052683676319,0.019818130540501477,0.017055025801681414,-0.031051079024996084,0.0224978907501496,0.018436578171091445,0.03171617983569532,0.02765486725663717,0.05124842193421618,-0.07374631268436578
0.818,-0.004118006189854616,-0.03374490032323241,-0.011326645687748825,0.024812362956356953,0.012060793385825936,-0.028554212533275742,0.020000706180566687,0.018436578171091445,0.029218995266112407,0.02765486725663717,0.053745606503799094,-0.07374631268436578
0.82,-0.010015444412205652,-0.03594009978207521,-0.007775526812140093,0.028730731314424798,0.008142425027758091,-0.026057346041555404,0.016570465050876098,0.016570465050876098,0.026721810696529492,0.02765486725663717,0.05530973451327434,-0.07374631268436578
0.822,-0.012512694037429285,-0.0334429152124923,-0.005278586237632911,0.0312278475223526,0.005645308819830287,-0.02356047954983506,0.011576095911710266,0.011576095911710266,0.024224626126946577,0.02558046086317683,0.05530973451327434,-0.07374631268436578
0.824,-0.015009943662653047,-0.030945730642909255,-0.00278164566312573,0.03372496373028034,0.0031481926119025488,-0.02106361305811472,0.006581726772544176,0.006581726772544176,0.021727441557363534,0.023082626947455862,0.05530973451327434,-0.07374631268436578
0.826,-0.017507193287876678,-0.02844854607332634,-0.00028470508861854854,0.03622207993820808,0.0006510764039748103,-0.018566746566394378,0.0015873576333783458,0.0015873576333783458,0.01923025698778062,0.020584793031734896,0.05530973451327434,-0.07374631268436578
0.828,-0.018436578171091445,-0.025951361503743425,0.0,0.03687315634218289,0.0,-0.018436578171091445,0.0,0.0,0.018436578171091445,0.018436578171091445,0.05530973451327434,-0.0703393011785783
0.83,-0.018436578171091445,-0.02345417693416051,0.0,0.03687315634218289,0.0,-0.018436578171091445,0.0,0.0,0.018436578171091445,0.018436578171091445,0.05530973451327434,-0.06534493203941247
0.832,-0.018436578171091445,-0.020956992364577466,0.0,0.03687315634218289,0.0,-0.018436578171091445,0.0,0.0,0.018436578171091445,0.018436578171091445,0.05530973451327434,-0.060350562900246374
0.834,-0.018436578171091445,-0.01845980779499455,0.00048476812386432315,0.03687315634218289,0.0,-0.018436578171091445,0.0,0.0,0.018436578171091445,0.018436578171091445,0.05530973451327434,-0.055356193761080544
0.836,-0.018436578171091445,-0.020910533116771254,0.0029817086983715043,0.03687315634218289,0.0,-0.018436578171091445,-0.002473954945679809,0.0,0.018436578171091445,0.018436578171091445,0.052835779567594526,-0.05530973451327434
0.838,-0.018436578171091445,-0.02340771768635417,0.005478649272878686,0.03687315634218289,0.0,-0.018436578171091445,-0.004971139515262724,0.0,0.018436578171091445,0.018436578171091445,0.05033859499801161,-0.05530973451327434
0.84,-0.018436578171091445,-0.025904902255937085,0.007975589847385866,0.03687315634218289,0.0,-0.018436578171091445,-0.0074683240848456385,0.0,0.018436578171091445,0.018436578171091445,0.047841410428428696,-0.05530973451327434
0.842,-0.019660646066057396,-0.02765486725663717,0.009218289085545723,0.03687315634218289,-0.0017785501767116963,-0.018436578171091445,-0.00847106951666276,-0.000747219568882962,0.018436578171091445,0.018436578171091445,0.04534422585884565,-0.0560569540821573
0.844,-0.02465514531650466,-0.02765486725663717,0.009218289085545723,0.03687315634218289,-0.006772782592567304,-0.018436578171091445,-0.005973884947079846,-0.003244404138465877,0.018436578171091445,0.016540865961337373,0.042847041289262734,-0.05855413865174021
0.846,-0.029649644566952186,-0.02765486725663717,0.009218289085545723,0.03687315634218289,-0.01176701500842265,-0.018436578171091445,-0.003476700377496931,-0.005741588708048791,0.018436578171091445,0.014043032045616403,0.04034985671967982,-0.061051323221323124
0.848,-0.03464414381739945,-0.02765486725663717,0.009218289085545723,0.03687315634218289,-0.01676124742427826,-0.018436578171091445,-0.000979515807914016,-0.008238773277631707,0.018436578171091445,0.011545198129895436,0.037852672150096904,-0.06354850779090604
0.85,-0.03549041297935098,-0.02613719849496814,0.009218289085545723,0.03687315634218289,-0.018436578171091445,-0.018436578171091445,0.0,-0.010735957847214752,0.015401240647753386,0.009218289085545723,0.03687315634218289,-0.06604569236048909
0.852,-0.032993163354127344,-0.023640013925385225,0.009218289085545723,0.03687315634218289,-0.018436578171091445,-0.018436578171091445,0.0,-0.013233142416797667,0.010406871508587557,0.009218289085545723,0.03687315634218289,-0.06854287693007201
0.854,-0.030495913728903715,-0.02114282935580231,0.009218289085545723,0.03687315634218289,-0.018436578171091445,-0.018436578171091445,0.0,-0.01573032698638058,0.005412502369421727,0.009218289085545723,0.03687315634218289,-0.07104006149965492
0.856,-0.027998664103679953,-0.018645644786219395,0.009218289085545723,0.03687315634218289,-0.018436578171091445,-0.018436578171091445,0.0,-0.018227511555963496,0.0004181332302558974,0.009218289085545723,0.03687315634218289,-0.07353724606923784
0.858,-0.02550141447845632,-0.02072469612554641,0.009218289085545723,0.03687315634218289,-0.016006951590405005,-0.018436578171091445,0.0,-0.018436578171091445,0.0,0.00827431763683619,0.034585038387727925,-0.07603443063882075
0.86,-0.02300416485323269,-0.023221880695129458,0.009218289085545723,0.03687315634218289,-0.0135098353824772,-0.018436578171091445,0.0,-0.018436578171091445,0.0,0.005776483721115223,0.03208785381814488,-0.0785316152084038
0.862,-0.020506915228009057,-0.025719065264712373,0.009218289085545723,0.03687315634218289,-0.011012719174549396,-0.018436578171091445,0.0,-0.018436578171091445,0.0,0.0032786498053942554,0.029590669248561963,-0.0810287997779867
0.864,-0.018436578171091445,-0.02765486725663717,0.008152568686256701,0.03687315634218289,-0.008515602966621724,-0.018436578171091445,0.0005613825776581187,-0.018997960748749564,-0.0005613825776581187,0.0007808158896732878,0.027093484678979048,-0.08408736692522774
0.866,-0.018436578171091445,-0.02765486725663717,0.0056556281117496505,0.03687315634218289,-0.006018486758693919,-0.018436578171091445,0.0030585671472410335,-0.02149514531833248,-0.0030585671472410335,-0.0017170180260476797,0.024596300109396133,-0.08908173606439357
0.868,-0.018436578171091445,-0.02765486725663717,0.003158687537242469,0.03687315634218289,-0.0035213705507661157,-0.018436578171091445,0.0055557517168240795,-0.023992329887915526,-0.0055557517168240795,-0.004214851941768647,0.02209911553981309,-0.09407610520355966
0.87,-0.018436578171091445,-0.02765486725663717,0.000661746962735288,0.03687315634218289,-0.0010242543428384428,-0.018436578171091445,0.008052936286406994,-0.02648951445749844,-0.008052936286406994,-0.006712685857489614,0.019601930970230174,-0.09907047434272549
0.872,-0.018436578171091445,-0.02632303548619298,0.0018351936117718933,0.03687315634218289,-0.0014728618650893613,-0.018436578171091445,0.009218289085545723,-0.028986699027081356,-0.010550120855989909,-0.009210519773210713,0.014441082859758887,-0.10273301171144714
0.874,-0.018436578171091445,-0.023825850916610068,0.004332134186279074,0.03687315634218289,-0.003969978073017165,-0.018436578171091445,0.009218289085545723,-0.03148388359666427,-0.013047305425572824,-0.01170835368893168,0.006949529151010142,-0.10523019628103004
0.876,-0.018436578171091445,-0.021328666347027153,0.006829074760786256,0.03687315634218289,-0.006467094280944838,-0.018436578171091445,0.009218289085545723,-0.033981068166247186,-0.015544489995155739,-0.014206187604652648,-0.0005420245577386023,-0.10772738085061297
0.878,-0.018436578171091445,-0.018831481777444106,0.009110562835798008,0.03687315634218289,-0.008964210488872642,-0.018436578171091445,0.009218289085545723,-0.03647825273583023,-0.018041674564738784,-0.016704021520373615,-0.00803357826648774,-0.11022456542019601
0.88,-0.018436578171091445,-0.022641140097551953,0.006613622261290826,0.03687315634218289,-0.009218289085545723,-0.018436578171091445,0.009218289085545723,-0.03687315634218289,-0.018436578171091445,-0.018436578171091445,-0.015525131975236485,-0.10851718806331842
0.882,-0.018436578171091445,-0.027635509236717783,0.004116681686783645,0.03687315634218289,-0.009218289085545723,-0.018436578171091445,0.009218289085545723,-0.03687315634218289,-0.018436578171091445,-0.018436578171091445,-0.023016685683985228,-0.1060200034937355
0.884,-0.018436578171091445,-0.03262987837588361,0.001619741112276464,0.03687315634218289,-0.009218289085545723,-0.018436578171091445,0.009218289085545723,-0.03687315634218289,-0.018436578171091445,-0.018436578171091445,-0.030508239392733973,-0.10352281892415259
0.886,-0.018436578171091445,-0.036497610755749484,0.0,0.03635705919269061,-0.008702191936053441,-0.018436578171091445,0.009218289085545723,-0.036497610755749484,-0.01806103258465804,-0.018436578171091445,-0.03837533868791652,-0.10140117994100295
0.888,-0.018436578171091445,-0.03400042618616657,0.0,0.033859942984762935,-0.006205075728125769,-0.018436578171091445,0.009218289085545723,-0.03400042618616657,-0.015563848015075123,-0.018436578171091445,-0.04836407696624818,-0.10140117994100295
0.89,-0.018436578171091445,-0.03150324161658365,0.0,0.031362826776835134,-0.0037079595201979644,-0.018436578171091445,0.009218289085545723,-0.03150324161658365,-0.013066663445492208,-0.018436578171091445,-0.05835281524457984,-0.10140117994100295
0.892,-0.018436578171091445,-0.02900605704700074,0.0,0.028865710568907327,-0.0012108433122701608,-0.018436578171091445,0.009218289085545723,-0.02900605704700074,-0.010569478875909295,-0.018436578171091445,-0.06834155352291149,-0.10140117994100295
0.894,-0.017424077566613443,-0.026508872477417695,0.001646672674713589,0.02765486725663717,0.0,-0.018436578171091445,0.009218289085545723,-0.02765486725663717,-0.010364283864765197,-0.018436578171091445,-0.07603830224280472,-0.10254717472022243
0.896,-0.014926827941389812,-0.02401168790783478,0.004143613249220771,0.02765486725663717,0.0,-0.018436578171091445,0.009218289085545723,-0.02765486725663717,-0.012861468434348112,-0.01612520775141188,-0.08103267138197055,-0.10504435928980534
0.898,-0.012429578316166048,-0.021514503338251865,0.006640553823727952,0.02765486725663717,0.0,-0.018436578171091445,0.009218289085545723,-0.02765486725663717,-0.015358653003931026,-0.013627373835690914,-0.08602704052113638,-0.10754154385938826
0.9,-0.009932328690942417,-0.01901731876866895,0.009137494398235134,0.02765486725663717,0.0,-0.018294576285306282,0.009218289085545723,-0.02765486725663717,-0.01785583757351394,-0.011129539919969815,-0.09102140966030221,-0.11003872842897117
0.902,-0.005651869045891848,-0.016520134199086035,0.006802143198349131,0.02354196997299142,0.0,-0.013300843301865602,0.007301845113540312,-0.02765486725663717,-0.018436578171091445,-0.009218289085545723,-0.09601577879946804,-0.11061946902654868
0.904,-0.0006573697954445844,-0.01402294962950299,0.00430520262384195,0.01854773755713581,0.0,-0.00830711031842492,0.004804660543957266,-0.02765486725663717,-0.018436578171091445,-0.009218289085545723,-0.10101014793863414,-0.11061946902654868
0.906,0.004337129455002679,-0.011525765059920074,0.0018082620493348992,0.013553505141280465,0.0,-0.003313377334984238,0.0023074759743743514,-0.02765486725663717,-0.018436578171091445,-0.009218289085545723,-0.10600451707779997,-0.11061946902654868
0.908,0.009218289085545723,-0.00902858049033716,0.0,0.00888878090548529,0.0003295081800604323,0.0,0.0001897085952085632,-0.027465158661428606,-0.018436578171091445,-0.009218289085545723,-0.1109988862169658,-0.11061946902654868
0.91,0.009218289085545723,-0.006531395920754244,0.0,0.006391664697557487,0.0028266243879882364,0.0,0.002686893164791478,-0.02496797409184569,-0.018436578171091445,-0.009218289085545723,-0.11599325535613163,-0.11061946902654868
0.912,0.009218289085545723,-0.004034211351171199,0.0,0.0038945484896298135,0.005323740595915909,0.0,0.0051840777343745235,-0.022470789522262644,-0.018436578171091445,-0.009218289085545723,-0.12098762449529772,-0.11061946902654868
0.914,0.009218289085545723,-0.001537026781588284,0.0,0.0013974322817020097,0.007820856803843713,0.0,0.0076812623039574385,-0.01997360495267973,-0.018436578171091445,-0.009218289085545723,-0.12598199363446355,-0.11061946902654868
0.916,0.010045668310846769,0.0019203155759892614,0.0,-0.0010996839262257944,0.010317973011771517,0.0,0.009218289085545723,-0.018436578171091445,-0.017476420383096814,-0.009218289085545723,-0.1290560471976401,-0.11061946902654868
0.918,0.012542917936070533,0.006914684715155091,0.0,-0.0035968001341534672,0.01281508921969919,0.0,0.009218289085545723,-0.018436578171091445,-0.014979235813513899,-0.007085612849572422,-0.1290560471976401,-0.11061946902654868
0.92,0.015040167561294164,0.01190905385432092,0.0,-0.006093916342081271,0.015312205427626993,0.0,0.009218289085545723,-0.018436578171091445,-0.012482051243930986,-0.004587778933851454,-0.1290560471976401,-0.11061946902654868
0.922,0.017537417186517797,0.016903422993487013,0.0,-0.008591032550009075,0.0178093216355548,0.0,0.009218289085545723,-0.018436578171091445,-0.009984866674347939,-0.002089945018130487,-0.1290560471976401,-0.11061946902654868
0.924,0.018436578171091445,0.018436578171091445,0.0022276249501382876,-0.009218289085545723,0.018436578171091445,0.0,0.009218289085545723,-0.018436578171091445,-0.009218289085545723,0.0,-0.1290560471976401,-0.10888886204576798
0.926,0.018436578171091445,0.018436578171091445,0.004724565524645338,-0.009218289085545723,0.018436578171091445,0.0,0.009218289085545723,-0.018436578171091445,-0.009218289085545723,0.0,-0.1290560471976401,-0.10639167747618505
0.928,0.018436578171091445,0.018436578171091445,0.0072215060991525195,-0.009218289085545723,0.018436578171091445,0.0,0.009218289085545723,-0.018436578171091445,-0.009218289085545723,0.0,-0.1290560471976401,-0.10389449290660215
0.93,0.018436578171091445,0.018436578171091445,0.008718131497431744,-0.009218289085545723,0.018293658960462863,0.0006508419765148031,0.009218289085545723,-0.018436578171091445,-0.009218289085545723,0.0,-0.1290560471976401,-0.10140117994100295
0.932,0.018436578171091445,0.018436578171091445,0.006221190922924564,-0.009218289085545723,0.01579654275253506,0.003147708468235144,0.009218289085545723,-0.018436578171091445,-0.009218289085545723,0.0,-0.1290560471976401,-0.10140117994100295
0.934,0.018436578171091445,0.018436578171091445,0.003724250348417382,-0.009218289085545723,0.013299426544607255,0.005644574959955485,0.009218289085545723,-0.018436578171091445,-0.009218289085545723,0.0,-0.1290560471976401,-0.10140117994100295
0.936,0.018436578171091445,0.018436578171091445,0.0012273097739102007,-0.009218289085545723,0.01080231033667958,0.008141441451675826,0.009218289085545723,-0.018436578171091445,-0.009218289085545723,0.0,-0.1290560471976401,-0.10140117994100295
0.938,0.018436578171091445,0.018436578171091445,0.0012696308005969807,-0.010131384042339668,0.009218289085545723,0.009218289085545723,0.009218289085545723,-0.018436578171091445,-0.009218289085545723,0.0,-0.12673308480733037,-0.10062685914423303
0.94,0.018436578171091445,0.018436578171091445,0.003766571375104162,-0.012628500250267473,0.009218289085545723,0.009218289085545723,0.009218289085545723,-0.018436578171091445,-0.009218289085545723,0.0,-0.11924153109858161,-0.09812967457465012
0.942,0.018436578171091445,0.018436578171091445,0.006263511949611343,-0.015125616458195145,0.009218289085545723,0.009218289085545723,0.009218289085545723,-0.018436578171091445,-0.009218289085545723,0.0,-0.11174997738983287,-0.0956324900050672
0.944,0.018436578171091445,0.018436578171091445,0.008760452524118525,-0.017622732666122947,0.009218289085545723,0.009218289085545723,0.009218289085545723,-0.018436578171091445,-0.009218289085545723,0.0,-0.10425842368108412,-0.09313530543548429
0.946,0.021262512694037502,0.0199813481606473,0.011257393098625576,-0.02011984887405075,0.01090155978850503,0.011407484824731808,0.010763059075101578,-0.018436578171091445,-0.009218289085545723,0.0,-0.0998564099514471,-0.09218289085545722
0.948,0.026257011944484765,0.022478532730230347,0.013754333673132757,-0.022616965081978427,0.013398675996432702,0.013904351316452148,0.013260243644684623,-0.018436578171091445,-0.009218289085545723,0.0,-0.09735922538186405,-0.09218289085545722
0.95,0.03125151119493229,0.02497571729981326,0.016251274247639936,-0.02511408128990623,0.015895792204360507,0.01640121780817249,0.015757428214267538,-0.018436578171091445,-0.009218289085545723,0.0,-0.09486204081228114,-0.09218289085545722
0.952,0.036246010445379555,0.027472901869396174,0.017813304868980098,-0.02761119749783403,0.01839290841228831,0.018436578171091445,0.018254612783850453,-0.018436578171091445,-0.009218289085545723,0.0,-0.09236485624269822,-0.09218289085545722
0.954,0.03687315634218289,0.02765486725663717,0.012819423719965735,-0.02765486725663717,0.018436578171091445,0.018436578171091445,0.02075179735343337,-0.006860482259381833,4.258764382196692e-05,0.0,-0.08523723330843146,-0.09912854840248299
0.956,0.03687315634218289,0.02765486725663717,0.007825542570951373,-0.02765486725663717,0.018436578171091445,0.018436578171091445,0.02324898192301641,0.005625440588533395,0.01003132592215415,0.0,-0.07774567959968232,-0.10662010211123213
0.958,0.03687315634218289,0.02765486725663717,0.0028316614219370097,-0.02765486725663717,0.018436578171091445,0.018436578171091445,0.025746166492599327,0.01811136343644797,0.02002006420048581,0.0,-0.07025412589093358,-0.11411165581998088
0.96,0.03641601987523562,0.02765486725663717,0.0,-0.026928361269275072,0.018436578171091445,0.018436578171091445,0.028243351062182242,0.032951221506542845,0.031185770089907618,0.0,-0.060408636960004536,-0.12160320952872962
0.962,0.03391877025001199,0.02765486725663717,0.0,-0.02443124506134727,0.018436578171091445,0.018436578171091445,0.030740535631765157,0.055425882632789074,0.04616887750740511,0.0035505757371212857,-0.04292834497292413,-0.12909476323747837
0.964,0.03142152062478836,0.02765486725663717,0.0,-0.021934128853419464,0.018436578171091445,0.018436578171091445,0.033237720201348075,0.07790054375903531,0.0611519849249026,0.008546243568563221,-0.025448052985843725,-0.1365863169462271
0.966,0.028924270999564728,0.02765486725663717,0.0,-0.019437012645491792,0.018436578171091445,0.018436578171091445,0.035734904770931115,0.10037520488528272,0.07613509234240087,0.013541911400005156,-0.007967760998762405,-0.14407787065497624
0.968,0.025199175492045024,0.024937001259974882,0.0,-0.016939896437563988,0.018436578171091445,0.014436858388146113,0.0341552903455206,0.1242087990098601,0.09791286475155407,0.018790081882336204,0.014948262981642568,-0.142056893375407
0.97,0.020204676241597497,0.019942632120809052,0.0,-0.014442780229636182,0.018436578171091445,0.009443125404705432,0.029160921206354776,0.14918064470568926,0.12538189501696614,0.036274919292382975,0.04241729324705463,-0.13206815509707534
0.972,0.015210176991150232,0.014948262981643224,0.0,-0.01194566402170851,0.018436578171091445,0.0044493924212647504,0.024166552067188946,0.1741524904015184,0.1528509252823782,0.05375975670243067,0.0698863235124667,-0.12207941681874367
0.974,0.010215677740702969,0.009953893842477132,0.0,-0.009448547813780706,0.018436578171091445,0.0,0.019172182928022856,0.19912433609734884,0.1803199555477917,0.07124459411247744,0.0973553537778802,-0.11209067854041149
0.976,0.005221178490255705,0.004959524703311302,0.0,-0.004684574126160082,0.013902863211705804,0.0,-0.013504154695666706,0.24751938589546732,0.2163065145776726,0.09202361995258862,0.15889449910116762,-0.053126149866384
0.978,0.00022667923980844126,-3.484443585452712e-05,0.0,0.00030965828969526396,0.00890863079585046,0.0,-0.05096192323941043,0.29996026185670854,0.2537642831214163,0.11949979302551926,0.22631848247990632,0.0142978335123547
0.98,-0.004767820010638822,-0.005029213575020356,0.0,0.0053038907055508715,0.003914398379994851,0.0,-0.08841969178315415,0.35240113781794974,0.29122205166516,0.1469759660984499,0.293742465858645,0.0817218168910934
0.982,-0.009490304173316035,-0.009620935899866085,0.0008925889264803722,0.01029812312140648,0.0,-0.0010413471624236064,-0.12305893262665729,0.39598378386414573,0.3226401179941003,0.17445213917138055,0.35271086613665964,0.14028757035478764
0.984,-0.011987553798539668,-0.012118120469449,0.0033895295009874226,0.015292355537261826,0.0,-0.003538213654143947,-0.1430364091833206,0.3934865992945628,0.3226401179941003,0.22108743646256218,0.3676939735541571,0.15277349320270223
0.986,-0.0144848034237633,-0.014615305039031915,0.005886470075494604,0.020286587953117434,0.0,-0.0060350801458642885,-0.16301388573998393,0.3909894147249799,0.3226401179941003,0.27853761652414744,0.3826770809716546,0.1652594160506168
0.988,-0.01698205304898693,-0.01711248960861483,0.008383410650001786,0.025280820368973042,0.0,-0.00853194663758463,-0.18299136229664725,0.38849223015539697,0.3226401179941003,0.3359877965857297,0.3976601883891521,0.17774533889853136
0.99,-0.019479302674210563,-0.020782770185304045,0.010880351224508967,0.028964960020732778,-0.0026201855281912188,-0.011028813129305102,-0.20179574284620427,0.3320326292589243,0.2839279497595924,0.39343797664731195,0.3809697036147795,0.19375054976776485
0.992,-0.021976552299434324,-0.025777139324470136,0.013377291799016148,0.03146207622866058,-0.007614417944046827,-0.013525679621025442,-0.2192760348332856,0.21466495448852113,0.2015208589633519,0.4106042722516212,0.3285288276535355,0.21372802632442922
0.994,-0.024473801924657958,-0.030771508463635966,0.01587423237352333,0.03395919243658838,-0.012608650359902435,-0.016022546112745784,-0.236756326820366,0.09729727971812413,0.11911376816711572,0.425591275745947,0.27608795169229433,0.23370550288109254
0.996,-0.02697105154988159,-0.035765877602801796,0.01837117294803051,0.03645630864451606,-0.01760288277575778,-0.018436578171091445,-0.2542366188074464,-0.020070395052272857,0.03670667737087953,0.4405782792402728,0.22364707573105314,0.25368297943775586
0.998,-0.02946830117510522,-0.03687315634218289,0.018436578171091445,0.03895342485244386,-0.016356309660830473,-0.018436578171091445,-0.26199918479506495,-0.09273653022514541,-0.030152051826217725,0.42654690116316185,0.17703683536948903,0.23867664239635655
1.0,-0.031965550800328854,-0.03687315634218289,0.018436578171091445,0.041450541060371666,-0.013859193452902669,-0.018436578171091445,-0.2669935539342311,-0.1526689598951385,-0.09258166606579386,0.329131378450039,0.13208751311699418,0.2137047967005261
1.002,-0.034462800425552616,-0.03687315634218289,0.018436578171091445,0.043947657268299335,-0.011362077244974997,-0.018436578171091445,-0.27198792307339686,-0.21260138956512847,-0.15501128030536673,0.23171585573692127,0.08713819086450172,0.18873295100469695
1.004,-0.03687315634218289,-0.03687315634218289,0.01702844219224757,0.04609144542772861,-0.009218289085545723,-0.018436578171091445,-0.2748141939816075,-0.273184248704405,-0.21592322578327097,0.13430033302380354,0.041538439142722705,0.1637611053088678
1.006,-0.03687315634218289,-0.03687315634218289,0.012034561043233208,0.04609144542772861,-0.009218289085545723,-0.018436578171091445,-0.2548367174249442,-0.34060823208314367,-0.26087254803576343,0.055317503825609605,-0.010902436818518506,0.13878925961303867
1.008,-0.03687315634218289,-0.03687315634218289,0.007040679894218846,0.04609144542772861,-0.009218289085545723,-0.018436578171091445,-0.2348592408682809,-0.4080322154618824,-0.3058218702882559,-0.009626177983135548,-0.06334331277975971,0.11381741391720952
1.01,-0.03687315634218289,-0.03687315634218289,0.0020467987452044835,0.04609144542772861,-0.009218289085545723,-0.018436578171091445,-0.2148817643116165,-0.4754561988406246,-0.35077119254075073,-0.0745698597918807,-0.11578418874100369,0.08884556822137905
1.012,-0.0360155532182406,-0.03687315634218289,0.0,0.04496794163306472,-0.010341792880209614,-0.018436578171091445,-0.19589154677083478,-0.510300634695271,-0.376962593491493,-0.13951354160062585,-0.1613142515910738,0.06189920449378674
1.014,-0.03351830359301696,-0.03687315634218289,0.0,0.04247082542513705,-0.012838909088137286,-0.018436578171091445,-0.17841125478375439,-0.49531752727777345,-0.3744654089219101,-0.19569343909542936,-0.1962748355652346,0.03193298965879176
1.016,-0.03102105396779333,-0.03687315634218289,0.0,0.03997370921720925,-0.01533602529606509,-0.018436578171091445,-0.160930962796674,-0.480334419860276,-0.37196822435232724,-0.25064578524129066,-0.2312354195393954,0.0019667748237967822
1.018,-0.0285238043425697,-0.03687315634218289,0.0,0.03747659300928144,-0.017833141503992896,-0.018436578171091445,-0.14345067080959267,-0.46535131244277766,-0.36947103978274415,-0.3055981313871519,-0.26619600351355804,-0.027999440011199767
1.02,-0.029283179795928267,-0.03687315634218289,0.0022430144143879426,0.03687315634218289,-0.016542898630262322,-0.018436578171091445,-0.1242126706138446,-0.431033414729936,-0.3458813567091494,-0.3512273027309443,-0.2607292986883628,-0.04917711380285647
1.022,-0.03178042942115203,-0.03687315634218289,0.004739954988895124,0.03687315634218289,-0.01404578242233452,-0.018436578171091445,-0.10423519405718129,-0.38858127704702644,-0.3134179573045715,-0.3562229705623863,-0.23825463756211657,-0.06665740578993687
1.024,-0.03427767904637566,-0.03687315634218289,0.007236895563402174,0.03687315634218289,-0.011548666214406715,-0.018436578171091445,-0.08425771750051797,-0.3461291393641169,-0.28095455789999363,-0.36121863839382823,-0.21577997643587032,-0.08413769777701728
1.026,-0.036774928671599295,-0.03687315634218289,0.00870274203318209,0.03703989542124957,-0.009385028164612404,-0.018436578171091445,-0.06440413227133736,-0.30380089300869006,-0.24858407699102775,-0.3662143062252701,-0.19339823380523613,-0.10137020710913228
1.028,-0.03687315634218289,-0.03687315634218289,0.006205801458674908,0.039537011629177374,-0.011882144372540208,-0.018436578171091445,-0.05441539399300517,-0.27133749360411047,-0.22361223129519728,-0.3526218942950865,-0.17841512638773785,-0.09887302253954923
1.03,-0.03687315634218289,-0.03687315634218289,0.0037088608841677273,0.04203412783710518,-0.014379260580468012,-0.018436578171091445,-0.04442665571467351,-0.23887409419953257,-0.19864038559936814,-0.32015005339071395,-0.16343201897024034,-0.09637583796996631
1.032,-0.03687315634218289,-0.03687315634218289,0.001211920309660546,0.04453124404503285,-0.016876376788395684,-0.018436578171091445,-0.03443791743634185,-0.20641069479495466,-0.173668539903539,-0.28767821248634134,-0.14844891155274287,-0.0938786534003834
1.034,-0.03687315634218289,-0.03687315634218289,0.0012850202648466355,0.04609144542772861,-0.018436578171091445,-0.018436578171091445,-0.02605202320732368,-0.1723444513410633,-0.14709385015839635,-0.2552063715819688,-0.1302601160366184,-0.09058004680614373
1.036,-0.03687315634218289,-0.03687315634218289,0.003781960839353817,0.04609144542772861,-0.018436578171091445,-0.018436578171091445,-0.02105765406815759,-0.1348866827973176,-0.11712763532339981,-0.2307835382567157,-0.10528827034078794,-0.08558567766697765
1.038,-0.03687315634218289,-0.03687315634218289,0.006278901413860998,0.04609144542772861,-0.018436578171091445,-0.018436578171091445,-0.01606328492899176,-0.09742891425357389,-0.08716142048840483,-0.20830303301522698,-0.08031642464495879,-0.08059130852781182
1.04,-0.03687315634218289,-0.03687315634218289,0.00877584198836818,0.04609144542772861,-0.018436578171091445,-0.018436578171091445,-0.011068915789825929,-0.05997114570983016,-0.05719520565340985,-0.18582252777373828,-0.05534457894912965,-0.07559693938864599
1.042,-0.03687315634218289,-0.03687315634218289,0.007163795608216085,0.04609144542772861,-0.018436578171091445,-0.018436578171091445,-0.009218289085545723,-0.03980396055795737,-0.03980396055795737,-0.16190469975026248,-0.041375831775400176,-0.07374631268436578
1.044,-0.03687315634218289,-0.03687315634218289,0.004666855033709034,0.04609144542772861,-0.018436578171091445,-0.018436578171091445,-0.009218289085545723,-0.029815222279625186,-0.029815222279625186,-0.12693502493016895,-0.03388427806665104,-0.07374631268436578
1.046,-0.03687315634218289,-0.03687315634218289,0.002169914459201853,0.04609144542772861,-0.018436578171091445,-0.018436578171091445,-0.009218289085545723,-0.019826484001293526,-0.019826484001293526,-0.0919653501100754,-0.026392724357902297,-0.07374631268436578
1.048,-0.03687315634218289,-0.03687315634218289,0.00032702611530532855,0.04609144542772861,-0.018436578171091445,-0.018436578171091445,-0.009218289085545723,-0.009837745722961868,-0.009837745722961868,-0.05699567528998185,-0.018901170649153552,-0.07374631268436578
1.05,-0.03244535519125673,-0.03453083593195401,0.00282396668981251,0.043614179110165976,-0.018436578171091445,-0.018436578171091445,-0.006875968675316844,-0.011560609495774601,-0.006875968675316844,-0.033691622940976905,-0.018436578171091445,-0.07608863309459465
1.052,-0.027450855940809465,-0.032033651362371095,0.005320907264319691,0.041117062902238176,-0.018436578171091445,-0.018436578171091445,-0.004378784105733929,-0.014057794065357516,-0.004378784105733929,-0.026198121193814004,-0.018436578171091445,-0.07858581766417758
1.054,-0.02245635669036194,-0.02953646679278805,0.007817847838826872,0.03861994669431037,-0.018436578171091445,-0.018436578171091445,-0.0018815995361508833,-0.016554978634940563,-0.0018815995361508833,-0.018704619446651104,-0.018436578171091445,-0.08108300223376062
1.056,-0.018436578171091445,-0.027039282223205136,0.00812178975775739,0.03687315634218289,-0.016935926459491057,-0.018436578171091445,-0.0006155850334320314,-0.017205408104227382,0.0,-0.011211117699487806,-0.018436578171091445,-0.08234901673647947
1.058,-0.018436578171091445,-0.02454209765362222,0.00562484918325021,0.03687315634218289,-0.01194169404363545,-0.018436578171091445,-0.003112769603014946,-0.012211038965061552,0.0,-0.007384731374472117,-0.018436578171091445,-0.07985183216689656
1.06,-0.018436578171091445,-0.022044913084039306,0.0031279086087430286,0.03687315634218289,-0.006947461627779842,-0.018436578171091445,-0.005609954172597861,-0.0072166698258957235,0.0,-0.004886897458751149,-0.018436578171091445,-0.07735464759731364
1.062,-0.018436578171091445,-0.019547728514456263,0.0006309680342358474,0.03687315634218289,-0.0019532292119244965,-0.018436578171091445,-0.008107138742180907,-0.002222300686729632,0.0,-0.0023890635430301814,-0.018436578171091445,-0.0748574630277306
1.064,-0.018436578171091445,-0.018436578171091445,0.0,0.03687315634218289,-0.003041003203931111,-0.018436578171091445,-0.009218289085545723,0.0,0.002772068452436198,0.0,-0.015664509718655246,-0.07374631268436578
1.066,-0.018436578171091445,-0.018436578171091445,0.0,0.03687315634218289,-0.008035235619786718,-0.018436578171091445,-0.009218289085545723,0.0,0.007766437591602027,0.0,-0.010670140579489418,-0.07374631268436578
1.068,-0.018436578171091445,-0.018436578171091445,0.0,0.03687315634218289,-0.013029468035642065,-0.018436578171091445,-0.009218289085545723,0.0,0.012760806730767857,0.0,-0.005675771440323588,-0.07374631268436578
1.07,-0.018436578171091445,-0.018436578171091445,-0.00013850517824702432,0.03687315634218289,-0.018023700451497673,-0.01900458571423157,-0.009218289085545723,0.0,0.017755175869933686,0.0,-0.0006814023011577588,-0.07374631268436578
1.072,-0.0204653573673777,-0.024906028428103945,-0.0026354457527542055,0.03687315634218289,-0.01385522347482961,-0.02399831869767225,-0.009218289085545723,0.0043129668380083325,0.018436578171091445,0.0008818169500290644,0.0,-0.07374631268436578
1.074,-0.022962606992601334,-0.03239758213685269,-0.005132386327261387,0.03687315634218289,-0.008860991058974263,-0.028992051681112935,-0.009218289085545723,0.009307335977174163,0.018436578171091445,0.003379650865750032,0.0,-0.07374631268436578
1.076,-0.025459856617824964,-0.039889135845601435,-0.007629326901768568,0.03687315634218289,-0.0038667586431186565,-0.03398578466455362,-0.009218289085545723,0.014301705116339991,0.018436578171091445,0.0058774847814709996,0.0,-0.07374631268436578
1.078,-0.02523695536534573,-0.04695094151214299,-0.02011402977430605,0.036309419455814416,0.005637368863684757,-0.04319224025961711,-0.00964803712775291,0.018436578171091445,0.018436578171091445,0.008375318697191967,-0.0008594960844143763,-0.07331656464215859
1.08,-0.005258958363556675,-0.05194531065130908,-0.05007731666839222,0.03381230324788674,0.030608530942961485,-0.05817343920993916,-0.012145221697335956,0.018436578171091445,0.018436578171091445,0.010873152612912934,-0.005853865223580468,-0.07081938007257554
1.082,0.01471903863823238,-0.05693967979047491,-0.0800406035624784,0.03131518703995894,0.05557969302223952,-0.0731546381602612,-0.01464240626691887,0.018436578171091445,0.018436578171091445,0.013370986528633902,-0.010848234362746297,-0.06832219550299264
1.084,0.03469703564002143,-0.06193404892964074,-0.110003890456563,0.028818070832031133,0.08055085510151756,-0.08813583711058325,-0.017139590836501788,0.018436578171091445,0.018436578171091445,0.01586882044435487,-0.015842603501912127,-0.06582501093340971
1.086,0.05682092944533096,-0.06692841806880657,-0.1299024677313718,0.01965139146143493,0.10285419191572688,-0.09764996345818126,-0.018436578171091445,0.018436578171091445,0.018436578171091445,0.01836665436007597,-0.02203716987607121,-0.0633278263638268
1.088,0.08179342569756728,-0.07192278720797265,-0.14488411117841488,0.004668694213868105,0.12283112157914931,-0.10514056293334229,-0.018436578171091445,0.018436578171091445,0.018436578171091445,0.018436578171091445,-0.029528723584820348,-0.06083064179424376
1.09,0.10676592194980622,-0.07691715634713849,-0.15986575462545796,-0.01031400303369872,0.14280805124257173,-0.11263116240850331,-0.018436578171091445,0.018436578171091445,0.018436578171091445,0.018436578171091445,-0.0370202772935691,-0.058333457224660844
1.092,0.13173841820204255,-0.08191152548630432,-0.17484739807250105,-0.025296700281264756,0.16278498090599314,-0.11983775811209439,-0.018436578171091445,0.018436578171091445,0.018436578171091445,0.018436578171091445,-0.044511831002317835,-0.05583627265507793
1.094,0.16961651917404397,-0.05537555178100098,-0.19472289115093594,-0.06342436969452134,0.18907417570551277,-0.11983775811209439,-0.018436578171091445,0.018436578171091445,0.020407224598870767,0.019842823703736787,-0.05200338471106658,-0.05530973451327434
1.096,0.2120697628028457,-0.020414967806840174,-0.2146984157469934,-0.105875345229294,0.2165424539927186,-0.11983775811209439,-0.018436578171091445,0.018436578171091445,0.022904409168453682,0.02483849153517872,-0.059494938419815326,-0.05530973451327434
1.098,0.25452300643164744,0.014545616167322467,-0.23467394034305084,-0.14832632076406443,0.244010732279923,-0.11983775811209439,-0.018436578171091445,0.018436578171091445,0.02540159373803673,0.029834159366620656,-0.06698649212856446,-0.05530973451327434
1.1,0.29639066202427683,0.04950620014148328,-0.24673543294871933,-0.1881372608802807,0.270347566816319,-0.11033546525497782,-0.018436578171091445,0.01868048922207392,0.027898778307619644,0.03482982719806285,-0.07447804583731321,-0.05506582346229186
1.102,0.3263576575269604,0.08446678411564408,-0.2392446112251982,-0.21310842295955876,0.2903244964797414,-0.08286993384605407,-0.018436578171091445,0.021177673791656835,0.03039596287720256,0.03687315634218289,-0.08196959954606195,-0.05256863889270894
1.104,0.356324653029644,0.11942736808980489,-0.23175378950167666,-0.2380795850388355,0.3103014261431628,-0.05540440243713032,-0.018436578171091445,0.02367485836123975,0.032893147446785474,0.03687315634218289,-0.0894611532548107,-0.05007145432312603
1.106,0.38629164853232756,0.15438795206396752,-0.2242629677781551,-0.26305074711811355,0.3302783558065852,-0.027938871028206577,-0.018436578171091445,0.026172042930822797,0.03539033201636852,0.03687315634218289,-0.09695270696355983,-0.04757426975354299
1.108,0.4064925467865951,0.19036289628189687,-0.18848246339769625,-0.2845799382080856,0.3250141648817639,0.009324790499885511,-0.018436578171091445,0.028669227500405712,0.03687315634218289,0.03687315634218289,-0.10241554018477149,-0.04609144542772861
1.11,0.4089897964118187,0.2278206648256406,-0.13354977075853827,-0.3020597516635793,0.29005453797077646,0.0517715208591313,-0.018436578171091445,0.031166412069988627,0.03687315634218289,0.039122372263181986,-0.10491272475435441,-0.04609144542772861
1.112,0.4114870460370426,0.26527843336938434,-0.07861707811938029,-0.31953956511907394,0.2550949110597872,0.0942182512183771,-0.018436578171091445,0.03366359663957154,0.03687315634218289,0.041620206178902955,-0.10740990932393732,-0.04609144542772861
1.114,0.41398429566226624,0.30273620191312806,-0.023684385480222295,-0.33701937857456854,0.22013528414879796,0.13666498157762288,-0.018436578171091445,0.036160781209154454,0.03687315634218289,0.04411804009462405,-0.10990709389352024,-0.04609144542772861
1.116,0.38496935296677526,0.32770030440099146,0.01769788388711011,-0.33148919911885566,0.1813406584192761,0.1671007190975502,-0.018436578171091445,0.0386579657787375,0.03687315634218289,0.04661587401034502,-0.11061946902654868,-0.04609144542772861
1.118,0.3400188597127499,0.3476777809576548,0.05764893307922501,-0.3190036180792166,0.14138679909243124,0.1970631169981943,-0.018436578171091445,0.041155150348320416,0.03687315634218289,0.04911370792606599,-0.11061946902654868,-0.04609144542772861
1.12,0.29506836645872453,0.3676552575143181,0.09759998227133991,-0.3065180370395776,0.10143293976558639,0.22702551489883838,-0.018436578171091445,0.04365233491790333,0.03687315634218289,0.051611541841786956,-0.11061946902654868,-0.04609144542772861
1.122,0.25011787320469914,0.3868777712941322,0.14126758707974574,-0.2926985433674058,0.060716844648724504,0.2529408590546085,-0.018436578171091445,0.046149519487486246,0.03698930446169815,0.054109375757507926,-0.11061946902654868,-0.04609144542772861
1.124,0.19545039653754917,0.374391848446217,0.19869722029341091,-0.2627331488722721,0.010774520490168424,0.2679220580049305,-0.018436578171091445,0.04864670405706929,0.041983673600864246,0.05660720967322889,-0.11061946902654868,-0.04609144542772861
1.126,0.14051090478262926,0.36190592559830237,0.2561268535070761,-0.2327677543771385,-0.03916780366838765,0.2829032569552526,-0.018436578171091445,0.05114388862665221,0.046978042740030077,0.05910504358894986,-0.11061946902654868,-0.04609144542772861
1.128,0.08557141302770936,0.3494200027503878,0.31355648672074127,-0.20280235988200485,-0.08911012782694373,0.2978844559055746,-0.018436578171091445,0.05364107319623512,0.05197241187919591,0.06160287750467096,-0.11061946902654868,-0.04609144542772861
1.13,0.03414544948982109,0.33279146363975476,0.33717546697790285,-0.1737977000805429,-0.12848437035512567,0.2984287964677503,-0.018436578171091445,0.05613825776581804,0.05530973451327434,0.06410071142039192,-0.11061946902654868,-0.04526292217518491
1.132,-0.00830779413898511,0.30781961794392426,0.32968464525438135,-0.14632942179333708,-0.15095841622647588,0.28844133050086895,-0.018436578171091445,0.05863544233540108,0.05530973451327434,0.0665985453361129,-0.11061946902654868,-0.042765737605601865
1.134,-0.05076103776778685,0.28284777224809515,0.3221938235308598,-0.11886114350613122,-0.17343246209782612,0.27845386453398757,-0.018436578171091445,0.06113262690498399,0.05530973451327434,0.06909637925183386,-0.11061946902654868,-0.04026855303601895
1.136,-0.09321428139658859,0.257875926552266,0.31470300180733823,-0.09139286521892682,-0.19590650796917516,0.2684663985671062,-0.018436578171091445,0.06362981147456691,0.05530973451327434,0.07159421316755482,-0.11061946902654868,-0.037771368466436035
1.138,-0.10914605396779328,0.23130510841110707,0.30100253125907883,-0.0691173182512275,-0.1958787181226639,0.251840344439774,-0.02163452306175098,0.06612699604414983,0.05530973451327434,0.07374631268436578,-0.11061946902654868,-0.03687315634218289
1.14,-0.10664880434256965,0.20383607814569502,0.2860208878120357,-0.049140388587805055,-0.18589025329095268,0.23436227899773163,-0.02662889220091681,0.06862418061373274,0.05530973451327434,0.07374631268436578,-0.11061946902654868,-0.03687315634218289
1.142,-0.10415155471734601,0.1763670478802815,0.27103924436499344,-0.029163458924383674,-0.17590178845924198,0.21688421355568924,-0.0316232613400829,0.07112136518331579,0.05530973451327434,0.07374631268436578,-0.11061946902654868,-0.03687315634218289
1.144,-0.10165430509212238,0.14889801761486943,0.2550303541792854,-0.009214319107472663,-0.16590538367138466,0.1984358018941157,-0.03661763047924873,0.07361854975289871,0.05530973451327434,0.07374631268436578,-0.11061946902654868,-0.03687315634218289
1.146,-0.09691293099279455,0.1309066739019207,0.23255788900872076,-0.006717202899544859,-0.15092268642381781,0.1759640034686326,-0.03687315634218289,0.07374631268436578,0.057679156151390173,0.07486509366061407,-0.10825004738843283,-0.039242577980298725
1.148,-0.09191843174234729,0.11342638191484031,0.21008542383815612,-0.004220086691617186,-0.13593998917625177,0.15349220504314956,-0.03687315634218289,0.07374631268436578,0.06017634072097309,0.07736292757633503,-0.10575286281884992,-0.04173976254988164
1.15,-0.08692393249190003,0.09594608992775899,0.18761295866759148,-0.001722970483689382,-0.12095729192868496,0.13102040661766648,-0.03687315634218289,0.07374631268436578,0.06267352529055613,0.07986076149205601,-0.10325567824926687,-0.04423694711946469
1.152,-0.07985909618453528,0.08039385672463555,0.16514049349702686,0.0,-0.1044263032326413,0.11231165816548708,-0.03687315634218289,0.07503168520700376,0.06517070986013905,0.08235859540777697,-0.098830434895727,-0.04544875916640963
1.154,-0.06487559843319192,0.0704051184463039,0.14266802832646222,0.0,-0.08444937356921992,0.09733045921516503,-0.03687315634218289,0.08002605434616959,0.06766789442972196,0.08485642932349795,-0.08884169661739534,-0.04295157459682671
1.156,-0.04989210068185013,0.06041638016797223,0.12019556315589759,0.0,-0.06447244390579748,0.08234926026484299,-0.03687315634218289,0.08502042348533541,0.07016507899930488,0.08735426323921903,-0.07885295833906368,-0.0404543900272438
1.158,-0.034908602930508334,0.05042764188964057,0.09772309798533296,0.0,-0.04449551424237505,0.06736806131452094,-0.03687315634218289,0.09001479262450124,0.07266226356888779,0.08985209715494001,-0.06886422006073202,-0.03795720545766088
1.16,-0.023789986217901855,0.041852039065413446,0.0790133568238103,0.0,-0.03224019193097193,0.05441038923663576,-0.03687315634218289,0.09359602630956228,0.07374631268436578,0.09218289085545722,-0.060288617236504895,-0.03687315634218289
1.162,-0.01629823734223096,0.0343604853566647,0.06153477280226004,0.0,-0.02474884330718852,0.04192605677803406,-0.03687315634218289,0.0960932108791452,0.07374631268436578,0.09218289085545722,-0.05279706352775615,-0.03687315634218289
1.164,-0.008806488466560064,0.02686893164791596,0.044056188780709764,0.0,-0.01725749468340511,0.02944172431943235,-0.03687315634218289,0.09859039544872811,0.07374631268436578,0.09218289085545722,-0.045305509819007404,-0.03687315634218289
1.166,-0.0013147395908891689,0.019377377939167214,0.02750097261414036,0.0,-0.00976614605962209,0.018436578171091445,-0.03687315634218289,0.10108758001831103,0.07374631268436578,0.09218289085545722,-0.03781395611025866,-0.03687315634218289
1.168,0.0020590030949272425,0.018436578171091445,0.025004032039633178,0.0,-0.006903791868976708,0.018436578171091445,-0.03905674098907401,0.10576834923478519,0.07811348197814802,0.09406306444054102,-0.030322402401509522,-0.03687315634218289
1.17,0.004556252720150874,0.018436578171091445,0.022507091465125997,0.0,-0.004406675661048904,0.018436578171091445,-0.041553925558656925,0.11076271837395102,0.08310785111731385,0.09905873227198321,-0.022830848692760777,-0.03687315634218289
1.172,0.0070535023453745065,0.018436578171091445,0.020010150890619076,0.0,-0.001909559453121231,0.018436578171091445,-0.04405111012823984,0.11575708751311685,0.08810222025647968,0.10405440010342515,-0.015339294984012033,-0.03687315634218289
1.174,0.009218289085545723,0.018436578171091445,0.017513210316111895,0.0,0.000587556754806573,0.017371564027703644,-0.04609144542772861,0.12075145665228268,0.09263974012555137,0.10905006793486709,-0.00784774127526329,-0.03641630707208875
1.176,0.009218289085545723,0.018436578171091445,0.015016269741604712,0.0,0.0030846729627343767,0.014874697535983304,-0.04609144542772861,0.12574582579144852,0.09513692469513428,0.11061946902654868,-0.00035618756651454496,-0.03391912250250583
1.178,0.009218289085545723,0.018436578171091445,0.012519329167097531,0.0,0.00558178917066205,0.012377831044262964,-0.04609144542772861,0.13074019493061462,0.09763410926471733,0.11061946902654868,0.007135366142234592,-0.031421937932922785
1.18,0.009218289085545723,0.018436578171091445,0.01002238859259035,0.0,0.008078905378589853,0.009880964552542622,-0.04609144542772861,0.13573456406978043,0.10013129383430025,0.11061946902654868,0.014626919850983336,-0.02892475336333987
1.182,0.010321461385947205,0.017209279708211102,0.007525448018083169,-0.001357732500971935,0.010576021586517657,0.007384098060822282,-0.04731874389060896,0.1395016347460662,0.10140117994100295,0.11061946902654868,0.020891175096852132,-0.026427568793756826
1.184,0.012818711011170837,0.014712095138628187,0.005028507443575987,-0.003854848708899608,0.013073137794445331,0.004887231569101941,-0.04981592846019187,0.1419988193156491,0.10140117994100295,0.11061946902654868,0.025885544236017962,-0.02393038422417391
1.186,0.015315960636394468,0.012214910569045273,0.0025315668690688064,-0.006351964916827412,0.015570254002373135,0.0023903650773816,-0.05231311302977479,0.144496003885232,0.10140117994100295,0.11061946902654868,0.03087991337518379,-0.021433199654590996
1.188,0.0178132102616181,0.009717725999462358,3.462629456162508e-05,-0.008849081124755215,0.01806737021030094,0.0,-0.0548102975993577,0.14699318845481493,0.10140117994100295,0.11061946902654868,0.03587428251434962,-0.01893601508500808
1.19,0.018436578171091445,0.007220541429879443,0.0,-0.009218289085545723,0.018436578171091445,0.0,-0.05730748216894062,0.14949037302439785,0.10539667525233551,0.11214225424421993,0.04286639930918173,-0.018436578171091445
1.192,0.018436578171091445,0.004723356860296528,0.0,-0.009218289085545723,0.018436578171091445,0.0,-0.059804666738523526,0.15198755759398075,0.11039104439150134,0.11713792207566187,0.050357953017930474,-0.018436578171091445
1.194,0.018436578171091445,0.0022261722907136136,0.0,-0.009218289085545723,0.018436578171091445,0.0,-0.06230185130810644,0.15448474216356367,0.11538541353066717,0.12213358990710381,0.05784950672667922,-0.018436578171091445
1.196,0.018436578171091445,-0.00027101227886930113,-0.0014696938358427552,-0.008817321300170999,0.01883754595646617,-0.0017513565913490248,-0.06479903587768936,0.1572529390120159,0.1201087703909637,0.12712925773854575,0.06507004815655866,-0.018165565892222145
1.198,0.018436578171091445,-0.0027681968484522157,-0.006463574984857118,-0.006320205092243195,0.02133466216439397,-0.006745089574789706,-0.06729622044727228,0.1622473081511817,0.1226059549605466,0.1305904863838139,0.07006441729572449,-0.01566838132263923
1.2,0.018436578171091445,-0.005265381418035392,-0.011457456133871481,-0.003823088884315391,0.023831778372321775,-0.011738822558230388,-0.06979340501685545,0.16724167729034806,0.12510313953012978,0.13308832029953485,0.07505878643489085,-0.013171196753056053
1.202,0.018436578171091445,-0.007762565987618307,-0.016451337282885843,-0.0013259726763877179,0.02632889458024945,-0.01673255554167107,-0.07229058958643837,0.1722360464295139,0.1276003240997127,0.13558615421525583,0.08005315557405668,-0.010674012183473138
1.204,0.018436578171091445,-0.009218289085545723,-0.018436578171091445,0.0,0.028826010788177255,-0.018436578171091445,-0.07478777415602128,0.17723041556867972,0.1311389701409511,0.1380839881309768,0.08504752471322251,-0.008176827613890223
1.206,0.018436578171091445,-0.009218289085545723,-0.018436578171091445,0.0,0.03132312699610506,-0.018436578171091445,-0.07728495872560419,0.18222478470784556,0.13613333928011695,0.14058182204669803,0.09004189385238834,-0.0056796430443073085
1.208,0.018436578171091445,-0.009218289085545723,-0.018436578171091445,0.0,0.03382024320403273,-0.018436578171091445,-0.07978214329518711,0.18721915384701138,0.14112770841928277,0.143079655962419,0.09503626299155417,-0.0031824584747243935
1.21,0.018436578171091445,-0.009218289085545723,-0.018436578171091445,0.0,0.036317359411960536,-0.018436578171091445,-0.08227932786477002,0.19221352298617722,0.1461220775584486,0.14557748987813995,0.10003063213071998,-0.0006852739051414786
